 PENELOPE (v. 2018)  Material data file ...............
 Material: ALUMINIUM  (13)                                               
 Mass density = 2.69890000E+00 g/cm**3
 Number of elements in the molecule =  1
   atomic number = 13,  atoms/molecule = 1.00000000E+00
 Mean excitation energy = 1.66000000E+02 eV
 Number of oscillators =  5 (E/P inelastic model)
   1  3.00000000E+00  0.00000000E+00  1.57851860E+01   0  30
   2  2.00000000E+00  7.70000000E+01  1.68185797E+02  13   3
   3  4.00000000E+00  7.70000000E+01  1.68514704E+02  13   4
   4  2.00000000E+00  1.21000000E+02  2.63983936E+02  13   2
   5  2.00000000E+00  1.56400000E+03  3.40945997E+03  13   1
 Number of shells =  5 (Compton IA model)
   1  3.00000000E+00  0.00000000E+00  8.42280291E-01   0  30
   2  4.00000000E+00  7.70000000E+01  1.67604000E-01  13   4
   3  2.00000000E+00  7.70000000E+01  1.67061000E-01  13   3
   4  2.00000000E+00  1.21000000E+02  3.03886000E-01  13   2
   5  2.00000000E+00  1.56400000E+03  6.83322000E-02  13   1
 *** RELAX:  Z = 13,  no. of shells =  6,  no. of transitions =   40
   1 1s1/2 2  1.56400E+03  3.70000E-01  6.83322E-02
   2 2s1/2 2  1.21000E+02  7.80000E-01  3.03886E-01
   3 2p1/2 2  7.70000E+01  4.00000E-02  1.67061E-01
   4 2p3/2 4  7.70000E+01  4.00000E-02  1.67604E-01
   5 3s1/2 2  9.07500E+00  0.00000E+00  1.23808E+00
   6 3p1/2 1  9.07500E+00  0.00000E+00  9.18119E-01
   1  3  0  1.23699E-02  1.48630E+03
   1  4  0  2.45528E-02  1.48671E+03
   1  6  0  7.55854E-05  1.55757E+03
   1  7  0  1.50039E-04  1.55757E+03
   1  2  2  7.83944E-02  1.31180E+03
   1  2  3  8.32180E-02  1.34965E+03
   1  2  4  1.62725E-01  1.35012E+03
   1  2  5  1.35884E-02  1.42069E+03
   1  2  6  8.96794E-04  1.42597E+03
   1  2  7  1.76485E-03  1.42598E+03
   1  3  3  1.42920E-02  1.38750E+03
   1  3  4  3.66942E-01  1.38797E+03
   1  3  5  6.49294E-03  1.45854E+03
   1  3  6  3.01318E-04  1.46382E+03
   1  3  7  3.65883E-03  1.46383E+03
   1  4  4  2.09226E-01  1.38844E+03
   1  4  5  1.27063E-02  1.45901E+03
   1  4  6  3.65189E-03  1.46429E+03
   1  4  7  4.20421E-03  1.46430E+03
   1  5  5  5.81139E-04  1.52958E+03
   1  5  6  7.17440E-05  1.53486E+03
   1  5  7  1.36311E-04  1.53487E+03
   2  6  0  2.07691E-06  1.22300E+02
   2  7  0  4.02982E-06  1.14180E+02
   2  5  5  1.12532E-02  9.87300E+01
   2  5  6  2.61944E-03  1.04010E+02
   2  5  7  5.21749E-03  1.04020E+02
   3  5  0  1.60531E-05  7.10400E+01
   3  7  0  1.75611E-10  7.63300E+01
   3  5  5  1.50408E-01  6.08800E+01
   3  5  6  8.00076E-01  6.61600E+01
   3  5  7  4.94996E-02  6.61700E+01
   4  5  0  1.49999E-05  7.05700E+01
   4  6  0  8.20316E-11  7.58500E+01
   4  7  0  8.10126E-11  7.58600E+01
   4  5  5  1.44757E-01  6.04100E+01
   4  5  6  2.47625E-02  6.56900E+01
   4  5  7  8.30465E-01  6.57000E+01
   2 30  0  2.49536E-04  3.81712E+01
   2 30 30  9.80654E-01  2.85014E+01
 *** Electron ionisation cross sections,  IZ = 13,  NSHELL =  4,  NDATA = 304
 4.00000E+01 0.00000E+00 0.00000E+00 0.00000E+00 0.00000E+00
 4.50000E+01 0.00000E+00 0.00000E+00 0.00000E+00 0.00000E+00
 5.00000E+01 0.00000E+00 0.00000E+00 0.00000E+00 0.00000E+00
 5.50000E+01 0.00000E+00 0.00000E+00 0.00000E+00 0.00000E+00
 6.00000E+01 0.00000E+00 0.00000E+00 0.00000E+00 0.00000E+00
 7.00000E+01 0.00000E+00 0.00000E+00 0.00000E+00 0.00000E+00
 7.70000E+01 0.00000E+00 0.00000E+00 0.00000E+00 0.00000E+00
 7.70000E+01 0.00000E+00 0.00000E+00 0.00000E+00 0.00000E+00
 7.85400E+01 0.00000E+00 0.00000E+00 5.53875E-20 1.13207E-19
 7.95915E+01 0.00000E+00 0.00000E+00 9.54618E-20 1.95059E-19
 8.00000E+01 0.00000E+00 0.00000E+00 1.11473E-19 2.27751E-19
 8.06570E+01 0.00000E+00 0.00000E+00 1.37694E-19 2.81279E-19
 8.17368E+01 0.00000E+00 0.00000E+00 1.81948E-19 3.71592E-19
 8.28310E+01 0.00000E+00 0.00000E+00 2.28089E-19 4.65723E-19
 8.39399E+01 0.00000E+00 0.00000E+00 2.75981E-19 5.63399E-19
 8.50637E+01 0.00000E+00 0.00000E+00 3.25492E-19 6.64349E-19
 8.62025E+01 0.00000E+00 0.00000E+00 3.76488E-19 7.68304E-19
 8.73565E+01 0.00000E+00 0.00000E+00 4.28840E-19 8.75002E-19
 8.85260E+01 0.00000E+00 0.00000E+00 4.82420E-19 9.84185E-19
 8.97112E+01 0.00000E+00 0.00000E+00 5.37105E-19 1.09560E-18
 9.00000E+01 0.00000E+00 0.00000E+00 5.50476E-19 1.12284E-18
 9.09122E+01 0.00000E+00 0.00000E+00 5.92775E-19 1.20901E-18
 9.21293E+01 0.00000E+00 0.00000E+00 6.49313E-19 1.32418E-18
 9.33626E+01 0.00000E+00 0.00000E+00 7.06607E-19 1.44087E-18
 9.46125E+01 0.00000E+00 0.00000E+00 7.64548E-19 1.55888E-18
 9.58792E+01 0.00000E+00 0.00000E+00 8.23033E-19 1.67798E-18
 9.71627E+01 0.00000E+00 0.00000E+00 8.81961E-19 1.79798E-18
 9.84635E+01 0.00000E+00 0.00000E+00 9.41239E-19 1.91868E-18
 9.97817E+01 0.00000E+00 0.00000E+00 1.00077E-18 2.03991E-18
 1.00000E+02 0.00000E+00 0.00000E+00 1.01058E-18 2.05987E-18
 1.01118E+02 0.00000E+00 0.00000E+00 1.06048E-18 2.16148E-18
 1.02471E+02 0.00000E+00 0.00000E+00 1.12028E-18 2.28324E-18
 1.03843E+02 0.00000E+00 0.00000E+00 1.18009E-18 2.40502E-18
 1.05233E+02 0.00000E+00 0.00000E+00 1.23984E-18 2.52668E-18
 1.06642E+02 0.00000E+00 0.00000E+00 1.29946E-18 2.64807E-18
 1.08070E+02 0.00000E+00 0.00000E+00 1.35889E-18 2.76907E-18
 1.09517E+02 0.00000E+00 0.00000E+00 1.41806E-18 2.88955E-18
 1.10000E+02 0.00000E+00 0.00000E+00 1.43760E-18 2.92932E-18
 1.10983E+02 0.00000E+00 0.00000E+00 1.47692E-18 3.00940E-18
 1.12468E+02 0.00000E+00 0.00000E+00 1.53542E-18 3.12851E-18
 1.13974E+02 0.00000E+00 0.00000E+00 1.59350E-18 3.24677E-18
 1.15500E+02 0.00000E+00 0.00000E+00 1.65112E-18 3.36410E-18
 1.21000E+02 0.00000E+00 0.00000E+00 1.85295E-18 3.77418E-18
 1.21000E+02 0.00000E+00 0.00000E+00 1.85295E-18 3.77418E-18
 1.23420E+02 0.00000E+00 2.87198E-20 1.93759E-18 3.94611E-18
 1.25000E+02 0.00000E+00 4.80286E-20 1.99141E-18 4.05540E-18
 1.26747E+02 0.00000E+00 6.97927E-20 2.04955E-18 4.17343E-18
 1.28444E+02 0.00000E+00 9.12797E-20 2.10463E-18 4.28524E-18
 1.30163E+02 0.00000E+00 1.13329E-19 2.15903E-18 4.39561E-18
 1.31906E+02 0.00000E+00 1.35888E-19 2.21267E-18 4.50443E-18
 1.33672E+02 0.00000E+00 1.58905E-19 2.26549E-18 4.61154E-18
 1.35461E+02 0.00000E+00 1.82331E-19 2.31744E-18 4.71684E-18
 1.37275E+02 0.00000E+00 2.06119E-19 2.36850E-18 4.82034E-18
 1.39112E+02 0.00000E+00 2.30220E-19 2.41869E-18 4.92205E-18
 1.40000E+02 0.00000E+00 2.41846E-19 2.44240E-18 4.97008E-18
 1.40975E+02 0.00000E+00 2.54591E-19 2.46802E-18 5.02200E-18
 1.42862E+02 0.00000E+00 2.79188E-19 2.51650E-18 5.12022E-18
 1.44775E+02 0.00000E+00 3.03970E-19 2.56413E-18 5.21671E-18
 1.46713E+02 0.00000E+00 3.28898E-19 2.61093E-18 5.31150E-18
 1.48677E+02 0.00000E+00 3.53932E-19 2.65691E-18 5.40462E-18
 1.50000E+02 0.00000E+00 3.70653E-19 2.68710E-18 5.46574E-18
 1.50667E+02 0.00000E+00 3.79037E-19 2.70208E-18 5.49608E-18
 1.52684E+02 0.00000E+00 4.04179E-19 2.74645E-18 5.58591E-18
 1.54728E+02 0.00000E+00 4.29325E-19 2.79003E-18 5.67413E-18
 1.56800E+02 0.00000E+00 4.54444E-19 2.83282E-18 5.76076E-18
 1.58899E+02 0.00000E+00 4.79506E-19 2.87485E-18 5.84582E-18
 1.61026E+02 0.00000E+00 5.04484E-19 2.91611E-18 5.92930E-18
 1.63182E+02 0.00000E+00 5.29352E-19 2.95659E-18 6.01119E-18
 1.65367E+02 0.00000E+00 5.54085E-19 2.99628E-18 6.09146E-18
 1.67580E+02 0.00000E+00 5.78660E-19 3.03517E-18 6.17008E-18
 1.69824E+02 0.00000E+00 6.03055E-19 3.07324E-18 6.24705E-18
 1.72097E+02 0.00000E+00 6.27251E-19 3.11048E-18 6.32232E-18
 1.74401E+02 0.00000E+00 6.51229E-19 3.14689E-18 6.39589E-18
 1.75000E+02 0.00000E+00 6.57369E-19 3.15614E-18 6.41456E-18
 1.76736E+02 0.00000E+00 6.74970E-19 3.18245E-18 6.46772E-18
 1.79102E+02 0.00000E+00 6.98459E-19 3.21715E-18 6.53779E-18
 1.81500E+02 0.00000E+00 7.21681E-19 3.25097E-18 6.60608E-18
 1.86297E+02 0.00000E+00 7.66324E-19 3.31473E-18 6.73477E-18
 1.91402E+02 0.00000E+00 8.10997E-19 3.37712E-18 6.86064E-18
 1.96460E+02 0.00000E+00 8.52585E-19 3.43371E-18 6.97479E-18
 2.00000E+02 0.00000E+00 8.80215E-19 3.47045E-18 7.04888E-18
 2.01844E+02 0.00000E+00 8.94147E-19 3.48871E-18 7.08568E-18
 2.07178E+02 0.00000E+00 9.32788E-19 3.53836E-18 7.18571E-18
 2.12855E+02 0.00000E+00 9.71327E-19 3.58638E-18 7.28233E-18
 2.18480E+02 0.00000E+00 1.00703E-18 3.62949E-18 7.36894E-18
 2.20000E+02 0.00000E+00 1.01627E-18 3.64043E-18 7.39088E-18
 2.24467E+02 0.00000E+00 1.04249E-18 3.67096E-18 7.45203E-18
 2.30400E+02 0.00000E+00 1.07517E-18 3.70787E-18 7.52585E-18
 2.36713E+02 0.00000E+00 1.10746E-18 3.74276E-18 7.59580E-18
 2.42969E+02 0.00000E+00 1.13704E-18 3.77300E-18 7.65693E-18
 2.50000E+02 0.00000E+00 1.16766E-18 3.80230E-18 7.71677E-18
 2.56224E+02 0.00000E+00 1.19264E-18 3.82468E-18 7.76259E-18
 2.63246E+02 0.00000E+00 1.21862E-18 3.84648E-18 7.80697E-18
 2.70202E+02 0.00000E+00 1.24227E-18 3.86501E-18 7.84396E-18
 2.77607E+02 0.00000E+00 1.26536E-18 3.88189E-18 7.87647E-18
 2.84943E+02 0.00000E+00 1.28631E-18 3.89590E-18 7.90256E-18
 2.92752E+02 0.00000E+00 1.30668E-18 3.90788E-18 7.92458E-18
 3.00000E+02 0.00000E+00 1.32394E-18 3.91635E-18 7.94042E-18
 3.08723E+02 0.00000E+00 1.34271E-18 3.92340E-18 7.95405E-18
 3.16881E+02 0.00000E+00 1.35839E-18 3.92725E-18 7.96154E-18
 3.25565E+02 0.00000E+00 1.37320E-18 3.92878E-18 7.96413E-18
 3.34169E+02 0.00000E+00 1.38607E-18 3.92799E-18 7.96172E-18
 3.43326E+02 0.00000E+00 1.39792E-18 3.92485E-18 7.95440E-18
 3.50000E+02 0.00000E+00 1.40550E-18 3.92120E-18 7.94634E-18
 3.52399E+02 0.00000E+00 1.40803E-18 3.91963E-18 7.94294E-18
 3.62056E+02 0.00000E+00 1.41727E-18 3.91210E-18 7.92683E-18
 3.71625E+02 0.00000E+00 1.42510E-18 3.90295E-18 7.90752E-18
 3.81808E+02 0.00000E+00 1.43210E-18 3.89162E-18 7.88379E-18
 3.91898E+02 0.00000E+00 1.43776E-18 3.87891E-18 7.85727E-18
 4.00000E+02 0.00000E+00 1.44146E-18 3.86771E-18 7.83396E-18
 4.13278E+02 0.00000E+00 1.44601E-18 3.84758E-18 7.79223E-18
 4.24604E+02 0.00000E+00 1.44852E-18 3.82891E-18 7.75368E-18
 4.35825E+02 0.00000E+00 1.44989E-18 3.80927E-18 7.71327E-18
 4.50000E+02 0.00000E+00 1.45018E-18 3.78312E-18 7.65964E-18
 4.59601E+02 0.00000E+00 1.44960E-18 3.76470E-18 7.62196E-18
 4.72196E+02 0.00000E+00 1.44804E-18 3.73984E-18 7.57116E-18
 4.84675E+02 0.00000E+00 1.44577E-18 3.71459E-18 7.51957E-18
 5.00000E+02 0.00000E+00 1.44207E-18 3.68293E-18 7.45487E-18
 5.11116E+02 0.00000E+00 1.43871E-18 3.65963E-18 7.40721E-18
 5.25122E+02 0.00000E+00 1.43366E-18 3.62994E-18 7.34652E-18
 5.39000E+02 0.00000E+00 1.42791E-18 3.60028E-18 7.28588E-18
 5.50000E+02 0.00000E+00 1.42297E-18 3.57665E-18 7.23758E-18
 5.53770E+02 0.00000E+00 1.42121E-18 3.56854E-18 7.22100E-18
 5.83981E+02 0.00000E+00 1.40605E-18 3.50341E-18 7.08800E-18
 6.00000E+02 0.00000E+00 1.39725E-18 3.46895E-18 7.01771E-18
 6.15840E+02 0.00000E+00 1.38806E-18 3.43503E-18 6.94859E-18
 6.49438E+02 0.00000E+00 1.36759E-18 3.36387E-18 6.80392E-18
 6.84868E+02 0.00000E+00 1.34540E-18 3.29041E-18 6.65495E-18
 7.00000E+02 0.00000E+00 1.33581E-18 3.25965E-18 6.59259E-18
 7.22230E+02 0.00000E+00 1.32158E-18 3.21521E-18 6.50241E-18
 7.61632E+02 0.00000E+00 1.29604E-18 3.13875E-18 6.34694E-18
 8.00000E+02 0.00000E+00 1.27110E-18 3.06705E-18 6.20102E-18
 8.47000E+02 0.00000E+00 1.24091E-18 2.98276E-18 6.02967E-18
 9.00000E+02 0.00000E+00 1.20771E-18 2.89240E-18 5.84631E-18
 1.00000E+03 0.00000E+00 1.14808E-18 2.73550E-18 5.52838E-18
 1.10000E+03 0.00000E+00 1.09277E-18 2.59473E-18 5.24306E-18
 1.25000E+03 0.00000E+00 1.01788E-18 2.40849E-18 4.86579E-18
 1.40000E+03 0.00000E+00 9.51814E-19 2.25446E-18 4.55470E-18
 1.50000E+03 0.00000E+00 9.12275E-19 2.16412E-18 4.37152E-18
 1.56400E+03 0.00000E+00 8.88655E-19 2.10958E-18 4.26095E-18
 1.56400E+03 0.00000E+00 8.88655E-19 2.10958E-18 4.26095E-18
 1.59528E+03 5.29857E-22 8.77546E-19 2.08392E-18 4.20898E-18
 1.61664E+03 8.77640E-22 8.70116E-19 2.06678E-18 4.17432E-18
 1.63828E+03 1.21905E-21 8.62710E-19 2.04975E-18 4.13988E-18
 1.66021E+03 1.55416E-21 8.55330E-19 2.03281E-18 4.10563E-18
 1.68244E+03 1.88305E-21 8.47973E-19 2.01596E-18 4.07156E-18
 1.70496E+03 2.20580E-21 8.40644E-19 1.99920E-18 4.03765E-18
 1.72779E+03 2.52250E-21 8.33345E-19 1.98250E-18 4.00388E-18
 1.75000E+03 2.82107E-21 8.26366E-19 1.96653E-18 3.97157E-18
 1.77436E+03 3.13803E-21 8.18852E-19 1.94930E-18 3.93670E-18
 1.79811E+03 3.43702E-21 8.11666E-19 1.93278E-18 3.90326E-18
 1.82219E+03 3.73027E-21 8.04525E-19 1.91632E-18 3.86992E-18
 1.84658E+03 4.01785E-21 7.97432E-19 1.89991E-18 3.83670E-18
 1.87130E+03 4.29985E-21 7.90391E-19 1.88356E-18 3.80361E-18
 1.89635E+03 4.57633E-21 7.83406E-19 1.86728E-18 3.77066E-18
 1.92174E+03 4.84738E-21 7.76480E-19 1.85108E-18 3.73788E-18
 1.94747E+03 5.11306E-21 7.69612E-19 1.83496E-18 3.70526E-18
 1.97354E+03 5.37345E-21 7.62799E-19 1.81893E-18 3.67283E-18
 2.00000E+03 5.62900E-21 7.56026E-19 1.80297E-18 3.64055E-18
 2.02673E+03 5.87865E-21 7.49320E-19 1.78715E-18 3.60856E-18
 2.05387E+03 6.12361E-21 7.42647E-19 1.77140E-18 3.57673E-18
 2.08136E+03 6.36355E-21 7.36012E-19 1.75576E-18 3.54511E-18
 2.10923E+03 6.59855E-21 7.29412E-19 1.74023E-18 3.51371E-18
 2.13747E+03 6.82869E-21 7.22842E-19 1.72481E-18 3.48254E-18
 2.16608E+03 7.05401E-21 7.16300E-19 1.70949E-18 3.45157E-18
 2.19508E+03 7.27459E-21 7.09786E-19 1.69427E-18 3.42079E-18
 2.20000E+03 7.31127E-21 7.08692E-19 1.69172E-18 3.41563E-18
 2.22447E+03 7.49049E-21 7.03303E-19 1.67914E-18 3.39019E-18
 2.25425E+03 7.70176E-21 6.96853E-19 1.66410E-18 3.35976E-18
 2.28442E+03 7.90848E-21 6.90441E-19 1.64913E-18 3.32948E-18
 2.31501E+03 8.11070E-21 6.84068E-19 1.63424E-18 3.29936E-18
 2.34600E+03 8.30847E-21 6.77738E-19 1.61943E-18 3.26941E-18
 2.47399E+03 9.04802E-21 6.52920E-19 1.56119E-18 3.15165E-18
 2.50000E+03 9.18632E-21 6.48117E-19 1.54990E-18 3.12883E-18
 2.60895E+03 9.72538E-21 6.28783E-19 1.50449E-18 3.03705E-18
 2.75129E+03 1.03409E-20 6.05218E-19 1.44932E-18 2.92550E-18
 2.90138E+03 1.08959E-20 5.82265E-19 1.39569E-18 2.81685E-18
 3.00000E+03 1.12150E-20 5.68171E-19 1.36279E-18 2.75019E-18
 3.05967E+03 1.13923E-20 5.60001E-19 1.34371E-18 2.71159E-18
 3.22659E+03 1.18319E-20 5.38465E-19 1.29332E-18 2.60985E-18
 3.40261E+03 1.22172E-20 5.17600E-19 1.24433E-18 2.51125E-18
 3.50000E+03 1.24008E-20 5.06770E-19 1.21892E-18 2.45995E-18
 3.58824E+03 1.25509E-20 4.97363E-19 1.19687E-18 2.41528E-18
 3.78400E+03 1.28357E-20 4.77771E-19 1.15105E-18 2.32250E-18
 4.00000E+03 1.30833E-20 4.57964E-19 1.10480E-18 2.22936E-18
 4.20813E+03 1.32664E-20 4.40462E-19 1.06381E-18 2.14686E-18
 4.43770E+03 1.34151E-20 4.22768E-19 1.02220E-18 2.06289E-18
 4.50000E+03 1.34470E-20 4.18234E-19 1.01151E-18 2.04128E-18
 4.67980E+03 1.35218E-20 4.05724E-19 9.82008E-19 1.98156E-18
 4.93511E+03 1.35894E-20 3.89271E-19 9.43312E-19 1.90337E-18
 5.00000E+03 1.36003E-20 3.85312E-19 9.34026E-19 1.88466E-18
 5.20434E+03 1.36201E-20 3.73398E-19 9.06093E-19 1.82845E-18
 5.50000E+03 1.36151E-20 3.57515E-19 8.68809E-19 1.75341E-18
 5.78768E+03 1.35797E-20 3.43406E-19 8.35638E-19 1.68631E-18
 6.00000E+03 1.35381E-20 3.33739E-19 8.12871E-19 1.64008E-18
 6.10342E+03 1.35138E-20 3.29239E-19 8.02248E-19 1.61855E-18
 6.43640E+03 1.34201E-20 3.15600E-19 7.69949E-19 1.55339E-18
 6.78753E+03 1.33003E-20 3.02476E-19 7.38863E-19 1.49083E-18
 7.00000E+03 1.32199E-20 2.95092E-19 7.21435E-19 1.45552E-18
 7.15783E+03 1.31574E-20 2.89855E-19 7.09096E-19 1.43043E-18
 7.54832E+03 1.29945E-20 2.77730E-19 6.80425E-19 1.37258E-18
 8.00000E+03 1.27944E-20 2.65038E-19 6.50323E-19 1.31199E-18
 8.39438E+03 1.26129E-20 2.54959E-19 6.26378E-19 1.26367E-18
 8.85234E+03 1.23995E-20 2.44237E-19 6.00843E-19 1.21213E-18
 9.00000E+03 1.23305E-20 2.40979E-19 5.93073E-19 1.19644E-18
 9.33528E+03 1.21738E-20 2.33914E-19 5.76225E-19 1.16243E-18
 9.84456E+03 1.19370E-20 2.24015E-19 5.52739E-19 1.11506E-18
 1.00000E+04 1.18652E-20 2.21177E-19 5.46057E-19 1.10158E-18
 1.03816E+04 1.16906E-20 2.14531E-19 5.30429E-19 1.07001E-18
 1.10000E+04 1.14133E-20 2.04656E-19 5.06906E-19 1.02246E-18
 1.25000E+04 1.07777E-20 1.84443E-19 4.58224E-19 9.24243E-19
 1.40000E+04 1.01988E-20 1.68111E-19 4.18957E-19 8.45016E-19
 1.50000E+04 9.84492E-21 1.58890E-19 3.96710E-19 8.00131E-19
 1.75000E+04 9.05951E-21 1.40112E-19 3.51193E-19 7.08300E-19
 2.00000E+04 8.39760E-21 1.25664E-19 3.16064E-19 6.37432E-19
 2.20000E+04 7.93977E-21 1.16298E-19 2.93214E-19 5.91337E-19
 2.50000E+04 7.35060E-21 1.04868E-19 2.65230E-19 5.34885E-19
 3.00000E+04 6.57616E-21 9.05894E-20 2.30093E-19 4.64012E-19
 3.50000E+04 5.97063E-21 8.01546E-20 2.04281E-19 4.11947E-19
 4.00000E+04 5.48341E-21 7.21672E-20 1.84477E-19 3.72002E-19
 4.50000E+04 5.08572E-21 6.58561E-20 1.68780E-19 3.40344E-19
 5.00000E+04 4.75330E-21 6.07403E-20 1.56021E-19 3.14611E-19
 5.50000E+04 4.47161E-21 5.65073E-20 1.45439E-19 2.93267E-19
 6.00000E+04 4.23033E-21 5.29454E-20 1.36514E-19 2.75268E-19
 7.00000E+04 3.83788E-21 4.72802E-20 1.22284E-19 2.46569E-19
 8.00000E+04 3.53218E-21 4.29745E-20 1.11436E-19 2.24691E-19
 9.00000E+04 3.28727E-21 3.95903E-20 1.02889E-19 2.07454E-19
 1.00000E+05 3.08714E-21 3.68607E-20 9.59807E-20 1.93523E-19
 1.10000E+05 2.92075E-21 3.46127E-20 9.02820E-20 1.82030E-19
 1.25000E+05 2.71657E-21 3.18990E-20 8.33920E-20 1.68135E-19
 1.40000E+05 2.55373E-21 2.97559E-20 7.79422E-20 1.57145E-19
 1.50000E+05 2.46274E-21 2.85622E-20 7.49036E-20 1.51017E-19
 1.75000E+05 2.27913E-21 2.61714E-20 6.88126E-20 1.38734E-19
 2.00000E+05 2.13975E-21 2.43804E-20 6.42455E-20 1.29524E-19
 2.20000E+05 2.05164E-21 2.32450E-20 6.13497E-20 1.23684E-19
 2.50000E+05 1.94648E-21 2.18916E-20 5.78990E-20 1.16725E-19
 3.00000E+05 1.82007E-21 2.02624E-20 5.37510E-20 1.08361E-19
 3.50000E+05 1.73271E-21 1.91286E-20 5.08739E-20 1.02557E-19
 4.00000E+05 1.67005E-21 1.83055E-20 4.87939E-20 9.83621E-20
 4.50000E+05 1.62395E-21 1.76893E-20 4.72458E-20 9.52398E-20
 5.00000E+05 1.58943E-21 1.72172E-20 4.60687E-20 9.28657E-20
 5.50000E+05 1.56328E-21 1.68496E-20 4.51596E-20 9.10321E-20
 6.00000E+05 1.54338E-21 1.65593E-20 4.44496E-20 8.95999E-20
 7.00000E+05 1.51667E-21 1.61422E-20 4.34496E-20 8.75823E-20
 8.00000E+05 1.50163E-21 1.58715E-20 4.28249E-20 8.63220E-20
 9.00000E+05 1.49403E-21 1.56951E-20 4.24406E-20 8.55464E-20
 1.00000E+06 1.49135E-21 1.55819E-20 4.22171E-20 8.50947E-20
 1.10000E+06 1.49201E-21 1.55126E-20 4.21042E-20 8.48662E-20
 1.25000E+06 1.49710E-21 1.54645E-20 4.20742E-20 8.48047E-20
 1.40000E+06 1.50531E-21 1.54603E-20 4.21525E-20 8.49623E-20
 1.50000E+06 1.51186E-21 1.54740E-20 4.22445E-20 8.51470E-20
 1.75000E+06 1.53034E-21 1.55440E-20 4.25584E-20 8.57782E-20
 2.00000E+06 1.55021E-21 1.56436E-20 4.29387E-20 8.65437E-20
 2.20000E+06 1.56634E-21 1.57343E-20 4.32640E-20 8.71984E-20
 2.50000E+06 1.59023E-21 1.58784E-20 4.37626E-20 8.82022E-20
 3.00000E+06 1.62822E-21 1.61220E-20 4.45806E-20 8.98495E-20
 3.50000E+06 1.66334E-21 1.63571E-20 4.53550E-20 9.14091E-20
 4.00000E+06 1.69570E-21 1.65791E-20 4.60769E-20 9.28629E-20
 4.50000E+06 1.72546E-21 1.67865E-20 4.67473E-20 9.42133E-20
 5.00000E+06 1.75297E-21 1.69804E-20 4.73702E-20 9.54677E-20
 5.50000E+06 1.77848E-21 1.71614E-20 4.79502E-20 9.66359E-20
 6.00000E+06 1.80222E-21 1.73307E-20 4.84917E-20 9.77266E-20
 7.00000E+06 1.84523E-21 1.76395E-20 4.94761E-20 9.97095E-20
 8.00000E+06 1.88331E-21 1.79145E-20 5.03506E-20 1.01471E-19
 9.00000E+06 1.91745E-21 1.81617E-20 5.11360E-20 1.03053E-19
 1.00000E+07 1.94835E-21 1.83862E-20 5.18484E-20 1.04488E-19
 1.10000E+07 1.97656E-21 1.85921E-20 5.24996E-20 1.05800E-19
 1.25000E+07 2.01477E-21 1.88705E-20 5.33820E-20 1.07577E-19
 1.40000E+07 2.04891E-21 1.91202E-20 5.41715E-20 1.09168E-19
 1.50000E+07 2.06981E-21 1.92728E-20 5.46553E-20 1.10142E-19
 1.75000E+07 2.11679E-21 1.96170E-20 5.57430E-20 1.12333E-19
 2.00000E+07 2.15776E-21 1.99172E-20 5.66919E-20 1.14245E-19
 2.20000E+07 2.18713E-21 2.01325E-20 5.73729E-20 1.15616E-19
 2.50000E+07 2.22669E-21 2.04222E-20 5.82894E-20 1.17463E-19
 3.00000E+07 2.28331E-21 2.08384E-20 5.96030E-20 1.20109E-19
 3.50000E+07 2.33140E-21 2.11911E-20 6.07185E-20 1.22356E-19
 4.00000E+07 2.37315E-21 2.14981E-20 6.16877E-20 1.24308E-19
 4.50000E+07 2.41006E-21 2.17693E-20 6.25445E-20 1.26034E-19
 5.00000E+07 2.44312E-21 2.20125E-20 6.33117E-20 1.27580E-19
 5.50000E+07 2.47307E-21 2.22325E-20 6.40072E-20 1.28980E-19
 6.00000E+07 2.50042E-21 2.24338E-20 6.46410E-20 1.30260E-19
 7.00000E+07 2.54897E-21 2.27906E-20 6.57693E-20 1.32531E-19
 8.00000E+07 2.59106E-21 2.31001E-20 6.67475E-20 1.34500E-19
 9.00000E+07 2.62826E-21 2.33738E-20 6.76108E-20 1.36239E-19
 1.00000E+08 2.66154E-21 2.36186E-20 6.83839E-20 1.37795E-19
 1.10000E+08 2.69166E-21 2.38397E-20 6.90825E-20 1.39204E-19
 1.25000E+08 2.73208E-21 2.41372E-20 7.00215E-20 1.41095E-19
 1.40000E+08 2.76792E-21 2.44009E-20 7.08546E-20 1.42773E-19
 1.50000E+08 2.78974E-21 2.45620E-20 7.13613E-20 1.43794E-19
 1.75000E+08 2.83854E-21 2.49207E-20 7.24945E-20 1.46081E-19
 2.00000E+08 2.88082E-21 2.52320E-20 7.34773E-20 1.48058E-19
 2.20000E+08 2.91102E-21 2.54544E-20 7.41773E-20 1.49469E-19
 2.50000E+08 2.95157E-21 2.57525E-20 7.51184E-20 1.51364E-19
 3.00000E+08 3.00937E-21 2.61780E-20 7.64648E-20 1.54069E-19
 3.50000E+08 3.05828E-21 2.65366E-20 7.75960E-20 1.56359E-19
 4.00000E+08 3.10065E-21 2.68491E-20 7.85857E-20 1.58333E-19
 4.50000E+08 3.13800E-21 2.71238E-20 7.94535E-20 1.60081E-19
 5.00000E+08 3.17141E-21 2.73696E-20 8.02299E-20 1.61645E-19
 5.50000E+08 3.20164E-21 2.75919E-20 8.09322E-20 1.63060E-19
 6.00000E+08 3.22924E-21 2.77949E-20 8.15735E-20 1.64352E-19
 7.00000E+08 3.27813E-21 2.81545E-20 8.27097E-20 1.66640E-19
 8.00000E+08 3.32048E-21 2.84661E-20 8.36940E-20 1.68623E-19
 9.00000E+08 3.35784E-21 2.87409E-20 8.45623E-20 1.70373E-19
 1.00000E+09 3.39126E-21 2.89868E-20 8.53390E-20 1.71937E-19
 *** Positron ionisation cross sections,  IZ = 13,  NSHELL =  4,  NDATA = 304
 4.00000E+01 0.00000E+00 0.00000E+00 0.00000E+00 0.00000E+00
 4.50000E+01 0.00000E+00 0.00000E+00 0.00000E+00 0.00000E+00
 5.00000E+01 0.00000E+00 0.00000E+00 0.00000E+00 0.00000E+00
 5.50000E+01 0.00000E+00 0.00000E+00 0.00000E+00 0.00000E+00
 6.00000E+01 0.00000E+00 0.00000E+00 0.00000E+00 0.00000E+00
 7.00000E+01 0.00000E+00 0.00000E+00 0.00000E+00 0.00000E+00
 7.70000E+01 0.00000E+00 0.00000E+00 0.00000E+00 0.00000E+00
 7.70000E+01 0.00000E+00 0.00000E+00 0.00000E+00 0.00000E+00
 7.85400E+01 0.00000E+00 0.00000E+00 5.09345E-25 1.05325E-24
 7.95915E+01 0.00000E+00 0.00000E+00 3.21793E-24 6.65947E-24
 8.00000E+01 0.00000E+00 0.00000E+00 5.58210E-24 1.15542E-23
 8.06570E+01 0.00000E+00 0.00000E+00 1.19654E-23 2.47725E-23
 8.17368E+01 0.00000E+00 0.00000E+00 3.31485E-23 6.86458E-23
 8.28310E+01 0.00000E+00 0.00000E+00 7.60536E-23 1.57521E-22
 8.39399E+01 0.00000E+00 0.00000E+00 1.53002E-22 3.16929E-22
 8.50637E+01 0.00000E+00 0.00000E+00 2.79366E-22 5.78716E-22
 8.62025E+01 0.00000E+00 0.00000E+00 4.73469E-22 9.80855E-22
 8.73565E+01 0.00000E+00 0.00000E+00 7.56424E-22 1.56708E-21
 8.85260E+01 0.00000E+00 0.00000E+00 1.15189E-21 2.38639E-21
 8.97112E+01 0.00000E+00 0.00000E+00 1.68578E-21 3.49250E-21
 9.00000E+01 0.00000E+00 0.00000E+00 1.83870E-21 3.80931E-21
 9.09122E+01 0.00000E+00 0.00000E+00 2.38599E-21 4.94316E-21
 9.21293E+01 0.00000E+00 0.00000E+00 3.28204E-21 6.79950E-21
 9.33626E+01 0.00000E+00 0.00000E+00 4.40475E-21 9.12533E-21
 9.46125E+01 0.00000E+00 0.00000E+00 5.78589E-21 1.19865E-20
 9.58792E+01 0.00000E+00 0.00000E+00 7.45788E-21 1.54500E-20
 9.71627E+01 0.00000E+00 0.00000E+00 9.45346E-21 1.95837E-20
 9.84635E+01 0.00000E+00 0.00000E+00 1.18054E-20 2.44554E-20
 9.97817E+01 0.00000E+00 0.00000E+00 1.45462E-20 3.01324E-20
 1.00000E+02 0.00000E+00 0.00000E+00 1.50360E-20 3.11469E-20
 1.01118E+02 0.00000E+00 0.00000E+00 1.77078E-20 3.66807E-20
 1.02471E+02 0.00000E+00 0.00000E+00 2.13214E-20 4.41650E-20
 1.03843E+02 0.00000E+00 0.00000E+00 2.54174E-20 5.26477E-20
 1.05233E+02 0.00000E+00 0.00000E+00 3.00247E-20 6.21891E-20
 1.06642E+02 0.00000E+00 0.00000E+00 3.51710E-20 7.28465E-20
 1.08070E+02 0.00000E+00 0.00000E+00 4.08828E-20 8.46740E-20
 1.09517E+02 0.00000E+00 0.00000E+00 4.71845E-20 9.77226E-20
 1.10000E+02 0.00000E+00 0.00000E+00 4.94057E-20 1.02322E-19
 1.10983E+02 0.00000E+00 0.00000E+00 5.40991E-20 1.12040E-19
 1.12468E+02 0.00000E+00 0.00000E+00 6.16477E-20 1.27669E-19
 1.13974E+02 0.00000E+00 0.00000E+00 6.98496E-20 1.44650E-19
 1.15500E+02 0.00000E+00 0.00000E+00 7.87221E-20 1.63018E-19
 1.21000E+02 0.00000E+00 0.00000E+00 1.16492E-19 2.40864E-19
 1.21000E+02 0.00000E+00 0.00000E+00 1.16492E-19 2.40864E-19
 1.23420E+02 0.00000E+00 1.22403E-24 1.35148E-19 2.79257E-19
 1.25000E+02 0.00000E+00 5.41620E-24 1.47939E-19 3.05567E-19
 1.26747E+02 0.00000E+00 1.79576E-23 1.62620E-19 3.35757E-19
 1.28444E+02 0.00000E+00 4.45591E-23 1.77415E-19 3.66175E-19
 1.30163E+02 0.00000E+00 9.47573E-23 1.92944E-19 3.98100E-19
 1.31906E+02 0.00000E+00 1.80441E-22 2.09238E-19 4.31603E-19
 1.33672E+02 0.00000E+00 3.16182E-22 2.26346E-19 4.66788E-19
 1.35461E+02 0.00000E+00 5.19174E-22 2.44320E-19 5.03753E-19
 1.37275E+02 0.00000E+00 8.09094E-22 2.63173E-19 5.42515E-19
 1.39112E+02 0.00000E+00 1.20792E-21 2.82903E-19 5.83064E-19
 1.40000E+02 0.00000E+00 1.44413E-21 2.92648E-19 6.03086E-19
 1.40975E+02 0.00000E+00 1.73969E-21 3.03502E-19 6.25382E-19
 1.42862E+02 0.00000E+00 2.43027E-21 3.24958E-19 6.69446E-19
 1.44775E+02 0.00000E+00 3.30701E-21 3.47256E-19 7.15221E-19
 1.46713E+02 0.00000E+00 4.39850E-21 3.70378E-19 7.62668E-19
 1.48677E+02 0.00000E+00 5.73423E-21 3.94302E-19 8.11739E-19
 1.50000E+02 0.00000E+00 6.77455E-21 4.10672E-19 8.45306E-19
 1.50667E+02 0.00000E+00 7.34427E-21 4.19000E-19 8.62377E-19
 1.52684E+02 0.00000E+00 9.25898E-21 4.44443E-19 9.14519E-19
 1.54728E+02 0.00000E+00 1.15087E-20 4.70598E-19 9.68097E-19
 1.56800E+02 0.00000E+00 1.41234E-20 4.97429E-19 1.02303E-18
 1.58899E+02 0.00000E+00 1.71325E-20 5.24898E-19 1.07925E-18
 1.61026E+02 0.00000E+00 2.05646E-20 5.52967E-19 1.13667E-18
 1.63182E+02 0.00000E+00 2.44471E-20 5.81611E-19 1.19525E-18
 1.65367E+02 0.00000E+00 2.88061E-20 6.10801E-19 1.25493E-18
 1.67580E+02 0.00000E+00 3.36662E-20 6.40515E-19 1.31566E-18
 1.69824E+02 0.00000E+00 3.90503E-20 6.70731E-19 1.37739E-18
 1.72097E+02 0.00000E+00 4.49794E-20 7.01428E-19 1.44009E-18
 1.74401E+02 0.00000E+00 5.14724E-20 7.32590E-19 1.50373E-18
 1.75000E+02 0.00000E+00 5.32388E-20 7.40692E-19 1.52027E-18
 1.76736E+02 0.00000E+00 5.85463E-20 7.64203E-19 1.56828E-18
 1.79102E+02 0.00000E+00 6.62156E-20 7.96258E-19 1.63371E-18
 1.81500E+02 0.00000E+00 7.44928E-20 8.28750E-19 1.70003E-18
 1.86297E+02 0.00000E+00 9.25793E-20 8.93744E-19 1.83267E-18
 1.91402E+02 0.00000E+00 1.13456E-19 9.62929E-19 1.97385E-18
 1.96460E+02 0.00000E+00 1.35607E-19 1.03146E-18 2.11362E-18
 2.00000E+02 0.00000E+00 1.51934E-19 1.07927E-18 2.21108E-18
 2.01844E+02 0.00000E+00 1.60708E-19 1.10408E-18 2.26163E-18
 2.07178E+02 0.00000E+00 1.87206E-19 1.17537E-18 2.40685E-18
 2.12855E+02 0.00000E+00 2.17147E-19 1.25020E-18 2.55916E-18
 2.18480E+02 0.00000E+00 2.48297E-19 1.32292E-18 2.70713E-18
 2.20000E+02 0.00000E+00 2.56925E-19 1.34229E-18 2.74653E-18
 2.24467E+02 0.00000E+00 2.82721E-19 1.39847E-18 2.86079E-18
 2.30400E+02 0.00000E+00 3.17752E-19 1.47121E-18 3.00873E-18
 2.36713E+02 0.00000E+00 3.55634E-19 1.54633E-18 3.16145E-18
 2.42969E+02 0.00000E+00 3.93372E-19 1.61848E-18 3.30799E-18
 2.50000E+02 0.00000E+00 4.35631E-19 1.69687E-18 3.46697E-18
 2.56224E+02 0.00000E+00 4.72673E-19 1.76381E-18 3.60256E-18
 2.63246E+02 0.00000E+00 5.13861E-19 1.83650E-18 3.74967E-18
 2.70202E+02 0.00000E+00 5.53929E-19 1.90556E-18 3.88936E-18
 2.77607E+02 0.00000E+00 5.95721E-19 1.97583E-18 4.03150E-18
 2.84943E+02 0.00000E+00 6.36290E-19 2.04224E-18 4.16577E-18
 2.92752E+02 0.00000E+00 6.78645E-19 2.10947E-18 4.30167E-18
 3.00000E+02 0.00000E+00 7.17135E-19 2.16879E-18 4.42153E-18
 3.08723E+02 0.00000E+00 7.62173E-19 2.23639E-18 4.55803E-18
 3.16881E+02 0.00000E+00 8.02826E-19 2.29603E-18 4.67838E-18
 3.25565E+02 0.00000E+00 8.44337E-19 2.35588E-18 4.79909E-18
 3.34169E+02 0.00000E+00 8.83511E-19 2.41155E-18 4.91128E-18
 3.43326E+02 0.00000E+00 9.22944E-19 2.46686E-18 5.02260E-18
 3.50000E+02 0.00000E+00 9.50225E-19 2.50463E-18 5.09855E-18
 3.52399E+02 0.00000E+00 9.59743E-19 2.51770E-18 5.12484E-18
 3.62056E+02 0.00000E+00 9.96545E-19 2.56781E-18 5.22557E-18
 3.71625E+02 0.00000E+00 1.03071E-18 2.61383E-18 5.31799E-18
 3.81808E+02 0.00000E+00 1.06462E-18 2.65919E-18 5.40891E-18
 3.91898E+02 0.00000E+00 1.09579E-18 2.70056E-18 5.49173E-18
 4.00000E+02 0.00000E+00 1.11913E-18 2.73125E-18 5.55317E-18
 4.13278E+02 0.00000E+00 1.15430E-18 2.77690E-18 5.64459E-18
 4.24604E+02 0.00000E+00 1.18140E-18 2.81157E-18 5.71405E-18
 4.35825E+02 0.00000E+00 1.20579E-18 2.84239E-18 5.77572E-18
 4.50000E+02 0.00000E+00 1.23330E-18 2.87677E-18 5.84426E-18
 4.59601E+02 0.00000E+00 1.24999E-18 2.89740E-18 5.88519E-18
 4.72196E+02 0.00000E+00 1.26966E-18 2.92145E-18 5.93273E-18
 4.84675E+02 0.00000E+00 1.28684E-18 2.94214E-18 5.97348E-18
 5.00000E+02 0.00000E+00 1.30503E-18 2.96363E-18 6.01564E-18
 5.11116E+02 0.00000E+00 1.31634E-18 2.97671E-18 6.04120E-18
 5.25122E+02 0.00000E+00 1.32851E-18 2.99043E-18 6.06788E-18
 5.39000E+02 0.00000E+00 1.33850E-18 3.00121E-18 6.08870E-18
 5.50000E+02 0.00000E+00 1.34510E-18 3.00793E-18 6.10156E-18
 5.53770E+02 0.00000E+00 1.34713E-18 3.00988E-18 6.10527E-18
 5.83981E+02 0.00000E+00 1.35918E-18 3.01964E-18 6.12331E-18
 6.00000E+02 0.00000E+00 1.36280E-18 3.02107E-18 6.12538E-18
 6.15840E+02 0.00000E+00 1.36468E-18 3.02032E-18 6.12303E-18
 6.49438E+02 0.00000E+00 1.36406E-18 3.01280E-18 6.10572E-18
 6.84868E+02 0.00000E+00 1.35817E-18 2.99780E-18 6.07269E-18
 7.00000E+02 0.00000E+00 1.35436E-18 2.98952E-18 6.05482E-18
