 PENELOPE (v. 2018)  Material data file ...............
 Material: WATER, LIQUID  --ICRU90  (278)                                
 Mass density = 9.98210000E-01 g/cm**3
 Number of elements in the molecule =  2
   atomic number =  1,  atoms/molecule = 2.00000000E+00
   atomic number =  8,  atoms/molecule = 1.00000000E+00
 Mean excitation energy = 7.80000000E+01 eV
 Number of oscillators =  3 (E/P inelastic model)
   1  6.00000000E+00  1.36133333E+01  3.25968681E+01   0  30
   2  2.00000000E+00  2.84800000E+01  6.66586870E+01   8  30
   3  2.00000000E+00  5.38000000E+02  1.25051422E+03   8   1
 Number of shells =  3 (Compton IA model)
   1  6.00000000E+00  1.36133333E+01  5.16032667E-01   0  30
   2  2.00000000E+00  2.84800000E+01  5.77977000E-01   8  30
   3  2.00000000E+00  5.38000000E+02  1.13183000E-01   8   1
 *** RELAX:  Z =  1,  no. of shells =  1,  no. of transitions =    0
   1 1s1/2 1  1.36000E+01  0.00000E+00  8.48807E-01
 *** RELAX:  Z =  8,  no. of shells =  4,  no. of transitions =    8
   1 1s1/2 2  5.38000E+02  1.33383E-01  1.13183E-01
   2 2s1/2 2  2.84800E+01  0.00000E+00  5.77977E-01
   3 2p1/2 2  1.36200E+01  0.00000E+00  3.49407E-01
   4 2p3/2 2  1.36200E+01  0.00000E+00  3.49884E-01
   1  3  0  1.90768E-03  5.24900E+02
   1  4  0  3.80027E-03  5.24900E+02
   1  2  2  1.78644E-01  4.78820E+02
   1  2  3  1.16224E-01  4.93860E+02
   1  2  4  2.30418E-01  4.93900E+02
   1  3  3  1.10822E-02  5.08900E+02
   1  3  4  2.91115E-01  5.08940E+02
   1  4  4  1.66809E-01  5.08980E+02
 *** Electron ionisation cross sections,  IZ =  1,  NSHELL =  1,  NDATA = 211
 1.00000E+01 0.00000E+00
 1.10000E+01 0.00000E+00
 1.25000E+01 0.00000E+00
 1.36000E+01 0.00000E+00
 1.36000E+01 0.00000E+00
 1.40000E+01 6.68213E-18
 1.49600E+01 2.04927E-17
 1.50000E+01 2.10082E-17
 1.51209E+01 2.25396E-17
 1.52834E+01 2.45392E-17
 1.54478E+01 2.64923E-17
 1.56139E+01 2.84001E-17
 1.57818E+01 3.02632E-17
 1.59515E+01 3.20827E-17
 1.61230E+01 3.38594E-17
 1.62963E+01 3.55942E-17
 1.64716E+01 3.72878E-17
 1.66487E+01 3.89411E-17
 1.68277E+01 4.05549E-17
 1.70086E+01 4.21299E-17
 1.71915E+01 4.36670E-17
 1.73763E+01 4.51668E-17
 1.75000E+01 4.61411E-17
 1.75632E+01 4.66301E-17
 1.77520E+01 4.80577E-17
 1.79429E+01 4.94501E-17
 1.81358E+01 5.08081E-17
 1.83308E+01 5.21323E-17
 1.85279E+01 5.34235E-17
 1.87272E+01 5.46822E-17
 1.89285E+01 5.59090E-17
 1.91320E+01 5.71046E-17
 1.93378E+01 5.82695E-17
 1.95457E+01 5.94043E-17
 1.97559E+01 6.05097E-17
 1.99683E+01 6.15861E-17
 2.00000E+01 6.17434E-17
 2.01830E+01 6.26341E-17
 2.04000E+01 6.36542E-17
 2.15129E+01 6.83199E-17
 2.20000E+01 7.01020E-17
 2.26866E+01 7.23786E-17
 2.39242E+01 7.58740E-17
 2.50000E+01 7.83735E-17
 2.52294E+01 7.88504E-17
 2.66058E+01 8.13528E-17
 2.80573E+01 8.34258E-17
 2.95879E+01 8.51035E-17
 3.00000E+01 8.54787E-17
 3.12021E+01 8.64118E-17
 3.29043E+01 8.73763E-17
 3.46994E+01 8.80222E-17
 3.50000E+01 8.80987E-17
 3.65924E+01 8.83733E-17
 3.85887E+01 8.84532E-17
 4.00000E+01 8.83651E-17
 4.06939E+01 8.82847E-17
 4.29140E+01 8.78890E-17
 4.50000E+01 8.73588E-17
 4.77241E+01 8.64921E-17
 5.00000E+01 8.56545E-17
 5.30733E+01 8.44075E-17
 5.50000E+01 8.35789E-17
 5.59687E+01 8.31526E-17
 5.90220E+01 8.17760E-17
 6.00000E+01 8.13271E-17
 6.22420E+01 8.02905E-17
 6.56376E+01 7.87170E-17
 6.92184E+01 7.70630E-17
 7.00000E+01 7.67036E-17
 7.29946E+01 7.53374E-17
 7.69769E+01 7.35585E-17
 8.00000E+01 7.22428E-17
 8.11763E+01 7.17393E-17
 8.56049E+01 6.98868E-17
 9.00000E+01 6.81176E-17
 9.52000E+01 6.61149E-17
 1.00000E+02 6.43529E-17
 1.10000E+02 6.09386E-17
 1.25000E+02 5.64146E-17
 1.40000E+02 5.25062E-17
 1.50000E+02 5.01862E-17
 1.75000E+02 4.52174E-17
 2.00000E+02 4.11550E-17
 2.20000E+02 3.84291E-17
 2.50000E+02 3.50738E-17
 3.00000E+02 3.06388E-17
 3.50000E+02 2.72262E-17
 4.00000E+02 2.45288E-17
 4.50000E+02 2.23357E-17
 5.00000E+02 2.05169E-17
 5.50000E+02 1.89870E-17
 6.00000E+02 1.76786E-17
 7.00000E+02 1.55585E-17
 8.00000E+02 1.39113E-17
 9.00000E+02 1.25956E-17
 1.00000E+03 1.15184E-17
 1.10000E+03 1.06168E-17
 1.25000E+03 9.51299E-18
 1.40000E+03 8.62911E-18
 1.50000E+03 8.12924E-18
 1.75000E+03 7.10966E-18
 2.00000E+03 6.32749E-18
 2.20000E+03 5.82130E-18
 2.50000E+03 5.20413E-18
 3.00000E+03 4.43338E-18
 3.50000E+03 3.87020E-18
 4.00000E+03 3.43989E-18
 4.50000E+03 3.09991E-18
 5.00000E+03 2.82421E-18
 5.50000E+03 2.59595E-18
 6.00000E+03 2.40370E-18
 7.00000E+03 2.09749E-18
 8.00000E+03 1.86416E-18
 9.00000E+03 1.68019E-18
 1.00000E+04 1.53128E-18
 1.10000E+04 1.40818E-18
 1.25000E+04 1.25879E-18
 1.40000E+04 1.14001E-18
 1.50000E+04 1.07343E-18
 1.75000E+04 9.38872E-19
 2.00000E+04 8.36586E-19
 2.20000E+04 7.70819E-19
 2.50000E+04 6.91124E-19
 3.00000E+04 5.92427E-19
 3.50000E+04 5.20938E-19
 4.00000E+04 4.66704E-19
 4.50000E+04 4.24118E-19
 5.00000E+04 3.89774E-19
 5.50000E+04 3.61475E-19
 6.00000E+04 3.37751E-19
 7.00000E+04 3.00190E-19
 8.00000E+04 2.71783E-19
 9.00000E+04 2.49549E-19
 1.00000E+05 2.31671E-19
 1.10000E+05 2.16988E-19
 1.25000E+05 1.99310E-19
 1.40000E+05 1.85387E-19
 1.50000E+05 1.77642E-19
 1.75000E+05 1.62158E-19
 2.00000E+05 1.50575E-19
 2.20000E+05 1.43237E-19
 2.50000E+05 1.34487E-19
 3.00000E+05 1.23941E-19
 3.50000E+05 1.16576E-19
 4.00000E+05 1.11201E-19
 4.50000E+05 1.07149E-19
 5.00000E+05 1.04019E-19
 5.50000E+05 1.01555E-19
 6.00000E+05 9.95853E-20
 7.00000E+05 9.66928E-20
 8.00000E+05 9.47394E-20
 9.00000E+05 9.33937E-20
 1.00000E+06 9.24584E-20
 1.10000E+06 9.18103E-20
 1.25000E+06 9.12068E-20
 1.40000E+06 9.08999E-20
 1.50000E+06 9.08076E-20
 1.75000E+06 9.08318E-20
 2.00000E+06 9.10800E-20
 2.20000E+06 9.13685E-20
 2.50000E+06 9.18840E-20
 3.00000E+06 9.28356E-20
 3.50000E+06 9.38051E-20
 4.00000E+06 9.47454E-20
 4.50000E+06 9.56399E-20
 5.00000E+06 9.64849E-20
 5.50000E+06 9.72788E-20
 6.00000E+06 9.80276E-20
 7.00000E+06 9.93999E-20
 8.00000E+06 1.00629E-19
 9.00000E+06 1.01739E-19
 1.00000E+07 1.02750E-19
 1.10000E+07 1.03676E-19
 1.25000E+07 1.04932E-19
 1.40000E+07 1.06060E-19
 1.50000E+07 1.06750E-19
 1.75000E+07 1.08309E-19
 2.00000E+07 1.09668E-19
 2.20000E+07 1.10645E-19
 2.50000E+07 1.11961E-19
 3.00000E+07 1.13848E-19
 3.50000E+07 1.15451E-19
 4.00000E+07 1.16843E-19
 4.50000E+07 1.18076E-19
 5.00000E+07 1.19177E-19
 5.50000E+07 1.20178E-19
 6.00000E+07 1.21092E-19
 7.00000E+07 1.22713E-19
 8.00000E+07 1.24118E-19
 9.00000E+07 1.25363E-19
 1.00000E+08 1.26473E-19
 1.10000E+08 1.27479E-19
 1.25000E+08 1.28831E-19
 1.40000E+08 1.30030E-19
 1.50000E+08 1.30756E-19
 1.75000E+08 1.32387E-19
 2.00000E+08 1.33800E-19
 2.20000E+08 1.34813E-19
 2.50000E+08 1.36166E-19
 3.00000E+08 1.38097E-19
 3.50000E+08 1.39732E-19
 4.00000E+08 1.41149E-19
 4.50000E+08 1.42399E-19
 5.00000E+08 1.43517E-19
 5.50000E+08 1.44528E-19
 6.00000E+08 1.45451E-19
 7.00000E+08 1.47087E-19
 8.00000E+08 1.48504E-19
 9.00000E+08 1.49754E-19
 1.00000E+09 1.50873E-19
 *** Electron ionisation cross sections,  IZ =  8,  NSHELL =  1,  NDATA = 198
 4.00000E+01 0.00000E+00
 4.50000E+01 0.00000E+00
 5.00000E+01 0.00000E+00
 5.50000E+01 0.00000E+00
 6.00000E+01 0.00000E+00
 7.00000E+01 0.00000E+00
 8.00000E+01 0.00000E+00
 9.00000E+01 0.00000E+00
 1.00000E+02 0.00000E+00
 1.10000E+02 0.00000E+00
 1.25000E+02 0.00000E+00
 1.40000E+02 0.00000E+00
 1.50000E+02 0.00000E+00
 1.75000E+02 0.00000E+00
 2.00000E+02 0.00000E+00
 2.20000E+02 0.00000E+00
 2.50000E+02 0.00000E+00
 3.00000E+02 0.00000E+00
 3.50000E+02 0.00000E+00
 4.00000E+02 0.00000E+00
 4.50000E+02 0.00000E+00
 5.00000E+02 0.00000E+00
 5.38000E+02 0.00000E+00
 5.38000E+02 0.00000E+00
 5.43380E+02 1.97422E-21
 5.50000E+02 4.35048E-21
 5.58406E+02 7.28580E-21
 5.66074E+02 9.88597E-21
 5.73847E+02 1.24488E-20
 5.81727E+02 1.49742E-20
 5.89715E+02 1.74619E-20
 5.97813E+02 1.99120E-20
 6.00000E+02 2.05617E-20
 6.06022E+02 2.23245E-20
 6.14344E+02 2.46993E-20
 6.22780E+02 2.70364E-20
 6.31332E+02 2.93359E-20
 6.40001E+02 3.15980E-20
 6.48790E+02 3.38226E-20
 6.57699E+02 3.60100E-20
 6.66730E+02 3.81603E-20
 6.75886E+02 4.02736E-20
 6.85167E+02 4.23502E-20
 6.94575E+02 4.43902E-20
 7.00000E+02 4.55375E-20
 7.04113E+02 4.63938E-20
 7.13782E+02 4.83613E-20
 7.23584E+02 5.02928E-20
 7.33520E+02 5.21887E-20
 7.43592E+02 5.40491E-20
 7.53803E+02 5.58743E-20
 7.64154E+02 5.76646E-20
 7.74648E+02 5.94202E-20
 7.85285E+02 6.11413E-20
 7.96068E+02 6.28283E-20
 8.00000E+02 6.34293E-20
 8.07000E+02 6.44814E-20
 8.51026E+02 7.05767E-20
 9.00000E+02 7.64739E-20
 9.46414E+02 8.13315E-20
 1.00000E+03 8.61847E-20
 1.05249E+03 9.02660E-20
 1.10000E+03 9.34647E-20
 1.10991E+03 9.40787E-20
 1.17046E+03 9.74700E-20
 1.23432E+03 1.00452E-19
 1.25000E+03 1.01101E-19
 1.30166E+03 1.03035E-19
 1.37267E+03 1.05233E-19
 1.40000E+03 1.05953E-19
 1.44755E+03 1.07056E-19
 1.50000E+03 1.08073E-19
 1.52653E+03 1.08516E-19
 1.60980E+03 1.09629E-19
 1.69763E+03 1.10415E-19
 1.75000E+03 1.10724E-19
 1.79024E+03 1.10891E-19
 1.88791E+03 1.11071E-19
 2.00000E+03 1.10948E-19
 2.09952E+03 1.10604E-19
 2.20000E+03 1.10085E-19
 2.33484E+03 1.09178E-19
 2.46222E+03 1.08146E-19
 2.50000E+03 1.07816E-19
 2.59655E+03 1.06933E-19
 2.73820E+03 1.05549E-19
 2.88758E+03 1.04008E-19
 3.00000E+03 1.02815E-19
 3.04511E+03 1.02332E-19
 3.21124E+03 1.00540E-19
 3.38643E+03 9.86453E-20
 3.50000E+03 9.74226E-20
 3.57117E+03 9.66608E-20
 3.76600E+03 9.46008E-20
 4.00000E+03 9.21882E-20
 4.50000E+03 8.73034E-20
 5.00000E+03 8.28284E-20
 5.50000E+03 7.87584E-20
 6.00000E+03 7.50510E-20
 7.00000E+03 6.86150E-20
 8.00000E+03 6.32125E-20
 9.00000E+03 5.86933E-20
 1.00000E+04 5.48868E-20
 1.10000E+04 5.15640E-20
 1.25000E+04 4.73353E-20
 1.40000E+04 4.38049E-20
 1.50000E+04 4.17647E-20
 1.75000E+04 3.74867E-20
 2.00000E+04 3.40910E-20
 2.20000E+04 3.18419E-20
 2.50000E+04 2.90436E-20
 3.00000E+04 2.54602E-20
 3.50000E+04 2.27788E-20
 4.00000E+04 2.06974E-20
 4.50000E+04 1.90268E-20
 5.00000E+04 1.76591E-20
 5.50000E+04 1.65209E-20
 6.00000E+04 1.55532E-20
 7.00000E+04 1.39971E-20
 8.00000E+04 1.28052E-20
 9.00000E+04 1.18608E-20
 1.00000E+05 1.10945E-20
 1.10000E+05 1.04571E-20
 1.25000E+05 9.68744E-21
 1.40000E+05 9.07701E-21
 1.50000E+05 8.73564E-21
 1.75000E+05 8.04989E-21
 2.00000E+05 7.53462E-21
 2.20000E+05 7.20753E-21
 2.50000E+05 6.81757E-21
 3.00000E+05 6.34889E-21
 3.50000E+05 6.02438E-21
 4.00000E+05 5.79073E-21
 4.50000E+05 5.61772E-21
 5.00000E+05 5.48707E-21
 5.50000E+05 5.38702E-21
 6.00000E+05 5.30971E-21
 7.00000E+05 5.20297E-21
 8.00000E+05 5.13895E-21
 9.00000E+05 5.10228E-21
 1.00000E+06 5.08379E-21
 1.10000E+06 5.07774E-21
 1.25000E+06 5.08416E-21
 1.40000E+06 5.10252E-21
 1.50000E+06 5.11902E-21
 1.75000E+06 5.16899E-21
 2.00000E+06 5.22541E-21
 2.20000E+06 5.27226E-21
 2.50000E+06 5.34260E-21
 3.00000E+06 5.45630E-21
 3.50000E+06 5.56257E-21
 4.00000E+06 5.66090E-21
 4.50000E+06 5.75177E-21
 5.00000E+06 5.83593E-21
 5.50000E+06 5.91425E-21
 6.00000E+06 5.98717E-21
 7.00000E+06 6.11960E-21
 8.00000E+06 6.23706E-21
 9.00000E+06 6.34221E-21
 1.00000E+07 6.43776E-21
 1.10000E+07 6.52504E-21
 1.25000E+07 6.64307E-21
 1.40000E+07 6.74867E-21
 1.50000E+07 6.81339E-21
 1.75000E+07 6.95882E-21
 2.00000E+07 7.08560E-21
 2.20000E+07 7.17654E-21
 2.50000E+07 7.29924E-21
 3.00000E+07 7.47458E-21
 3.50000E+07 7.62350E-21
 4.00000E+07 7.75302E-21
 4.50000E+07 7.86733E-21
 5.00000E+07 7.96988E-21
 5.50000E+07 8.06287E-21
 6.00000E+07 8.14747E-21
 7.00000E+07 8.29800E-21
 8.00000E+07 8.42870E-21
 9.00000E+07 8.54374E-21
 1.00000E+08 8.64703E-21
 1.10000E+08 8.74033E-21
 1.25000E+08 8.86581E-21
 1.40000E+08 8.97692E-21
 1.50000E+08 9.04467E-21
 1.75000E+08 9.19597E-21
 2.00000E+08 9.32723E-21
 2.20000E+08 9.42123E-21
 2.50000E+08 9.54650E-21
 3.00000E+08 9.72613E-21
 3.50000E+08 9.87748E-21
 4.00000E+08 1.00091E-20
 4.50000E+08 1.01249E-20
 5.00000E+08 1.02286E-20
 5.50000E+08 1.03224E-20
 6.00000E+08 1.04080E-20
 7.00000E+08 1.05597E-20
 8.00000E+08 1.06911E-20
 9.00000E+08 1.08071E-20
 1.00000E+09 1.09108E-20
 *** Positron ionisation cross sections,  IZ =  1,  NSHELL =  1,  NDATA = 210
 1.00000E+01 0.00000E+00
 1.10000E+01 0.00000E+00
 1.25000E+01 0.00000E+00
 1.36000E+01 0.00000E+00
 1.36000E+01 0.00000E+00
 1.40000E+01 8.57618E-23
 1.50000E+01 4.09598E-21
 1.63200E+01 5.37551E-20
 1.64461E+01 6.44877E-20
 1.65731E+01 7.68752E-20
 1.67011E+01 9.10988E-20
 1.68301E+01 1.07351E-19
 1.69601E+01 1.25835E-19
 1.70911E+01 1.46766E-19
 1.72231E+01 1.70368E-19
 1.73562E+01 1.96877E-19
 1.75000E+01 2.28821E-19
 1.76253E+01 2.59612E-19
 1.77615E+01 2.96359E-19
 1.78987E+01 3.37053E-19
 1.80369E+01 3.81979E-19
 1.81763E+01 4.31427E-19
 1.83166E+01 4.85693E-19
 1.84581E+01 5.45082E-19
 1.86007E+01 6.09904E-19
 1.87444E+01 6.80473E-19
 1.88892E+01 7.57109E-19
 1.90351E+01 8.40133E-19
 1.91821E+01 9.29870E-19
 1.93303E+01 1.02665E-18
 1.94796E+01 1.13079E-18
 1.96301E+01 1.24262E-18
 1.97817E+01 1.36248E-18
 1.99345E+01 1.49067E-18
 2.00000E+01 1.54795E-18
 2.00885E+01 1.62753E-18
 2.02436E+01 1.77336E-18
 2.04000E+01 1.92847E-18
 2.15129E+01 3.52662E-18
 2.20000E+01 4.43800E-18
 2.26866E+01 5.93478E-18
 2.39242E+01 9.14482E-18
 2.50000E+01 1.23056E-17
 2.52294E+01 1.30106E-17
 2.66058E+01 1.73944E-17
 2.80573E+01 2.22352E-17
 2.95879E+01 2.74552E-17
 3.00000E+01 2.88563E-17
 3.12021E+01 3.28906E-17
 3.29043E+01 3.83907E-17
 3.46994E+01 4.38270E-17
 3.50000E+01 4.46942E-17
 3.65924E+01 4.90652E-17
 3.85887E+01 5.40009E-17
 4.00000E+01 5.71273E-17
 4.06939E+01 5.85549E-17
 4.29140E+01 6.26520E-17
 4.50000E+01 6.58910E-17
 4.77241E+01 6.93395E-17
 5.00000E+01 7.16285E-17
 5.30733E+01 7.39854E-17
 5.50000E+01 7.50995E-17
 5.59687E+01 7.55680E-17
 5.90220E+01 7.66859E-17
 6.00000E+01 7.69397E-17
 6.22420E+01 7.73587E-17
 6.56376E+01 7.76317E-17
 6.92184E+01 7.75411E-17
 7.00000E+01 7.74786E-17
 7.29946E+01 7.71221E-17
 7.69769E+01 7.64145E-17
 8.00000E+01 7.57420E-17
 8.11763E+01 7.54552E-17
 8.56049E+01 7.42771E-17
 9.00000E+01 7.29942E-17
 9.52000E+01 7.13875E-17
 1.00000E+02 6.98615E-17
 1.10000E+02 6.66725E-17
 1.25000E+02 6.20861E-17
 1.40000E+02 5.78834E-17
 1.50000E+02 5.53463E-17
 1.75000E+02 4.97637E-17
 2.00000E+02 4.51356E-17
 2.20000E+02 4.19802E-17
 2.50000E+02 3.79155E-17
 3.00000E+02 3.27110E-17
 3.50000E+02 2.88051E-17
 4.00000E+02 2.57738E-17
 4.50000E+02 2.33436E-17
 5.00000E+02 2.13503E-17
 5.50000E+02 1.96882E-17
 6.00000E+02 1.82771E-17
 7.00000E+02 1.60101E-17
 8.00000E+02 1.42646E-17
 9.00000E+02 1.28800E-17
 1.00000E+03 1.17525E-17
 1.10000E+03 1.08130E-17
 1.25000E+03 9.66768E-18
 1.40000E+03 8.75440E-18
 1.50000E+03 8.23941E-18
 1.75000E+03 7.19225E-18
 2.00000E+03 6.39181E-18
 2.20000E+03 5.87510E-18
 2.50000E+03 5.24646E-18
 3.00000E+03 4.46343E-18
 3.50000E+03 3.89269E-18
 4.00000E+03 3.45738E-18
 4.50000E+03 3.11392E-18
 5.00000E+03 2.83570E-18
 5.50000E+03 2.60554E-18
 6.00000E+03 2.41185E-18
 7.00000E+03 2.10359E-18
 8.00000E+03 1.86889E-18
 9.00000E+03 1.68399E-18
 1.00000E+04 1.53440E-18
 1.10000E+04 1.41079E-18
 1.25000E+04 1.26084E-18
 1.40000E+04 1.14167E-18
 1.50000E+04 1.07489E-18
 1.75000E+04 9.39963E-19
 2.00000E+04 8.37436E-19
 2.20000E+04 7.71532E-19
 2.50000E+04 6.91686E-19
 3.00000E+04 5.92829E-19
 3.50000E+04 5.21241E-19
 4.00000E+04 4.66942E-19
 4.50000E+04 4.24310E-19
 5.00000E+04 3.89932E-19
 5.50000E+04 3.61609E-19
 6.00000E+04 3.37866E-19
 7.00000E+04 3.00277E-19
 8.00000E+04 2.71853E-19
 9.00000E+04 2.49605E-19
 1.00000E+05 2.31719E-19
 1.10000E+05 2.17028E-19
 1.25000E+05 1.99342E-19
 1.40000E+05 1.85414E-19
 1.50000E+05 1.77666E-19
 1.75000E+05 1.62177E-19
 2.00000E+05 1.50590E-19
 2.20000E+05 1.43250E-19
 2.50000E+05 1.34497E-19
 3.00000E+05 1.23949E-19
 3.50000E+05 1.16583E-19
 4.00000E+05 1.11206E-19
 4.50000E+05 1.07154E-19
 5.00000E+05 1.04023E-19
 5.50000E+05 1.01558E-19
 6.00000E+05 9.95886E-20
 7.00000E+05 9.66956E-20
 8.00000E+05 9.47418E-20
 9.00000E+05 9.33958E-20
 1.00000E+06 9.24603E-20
 1.10000E+06 9.18120E-20
 1.25000E+06 9.12082E-20
 1.40000E+06 9.09012E-20
 1.50000E+06 9.08088E-20
 1.75000E+06 9.08329E-20
 2.00000E+06 9.10809E-20
 2.20000E+06 9.13694E-20
 2.50000E+06 9.18847E-20
 3.00000E+06 9.28362E-20
 3.50000E+06 9.38057E-20
 4.00000E+06 9.47459E-20
 4.50000E+06 9.56404E-20
 5.00000E+06 9.64853E-20
 5.50000E+06 9.72791E-20
 6.00000E+06 9.80279E-20
 7.00000E+06 9.94002E-20
 8.00000E+06 1.00629E-19
 9.00000E+06 1.01740E-19
 1.00000E+07 1.02750E-19
 1.10000E+07 1.03676E-19
 1.25000E+07 1.04932E-19
 1.40000E+07 1.06060E-19
 1.50000E+07 1.06750E-19
 1.75000E+07 1.08309E-19
 2.00000E+07 1.09668E-19
 2.20000E+07 1.10645E-19
 2.50000E+07 1.11961E-19
 3.00000E+07 1.13848E-19
 3.50000E+07 1.15451E-19
 4.00000E+07 1.16843E-19
 4.50000E+07 1.18076E-19
 5.00000E+07 1.19177E-19
 5.50000E+07 1.20179E-19
 6.00000E+07 1.21092E-19
 7.00000E+07 1.22713E-19
 8.00000E+07 1.24118E-19
 9.00000E+07 1.25363E-19
 1.00000E+08 1.26473E-19
 1.10000E+08 1.27479E-19
 1.25000E+08 1.28831E-19
 1.40000E+08 1.30030E-19
 1.50000E+08 1.30756E-19
 1.75000E+08 1.32387E-19
 2.00000E+08 1.33800E-19
 2.20000E+08 1.34813E-19
 2.50000E+08 1.36166E-19
 3.00000E+08 1.38097E-19
 3.50000E+08 1.39732E-19
 4.00000E+08 1.41149E-19
 4.50000E+08 1.42399E-19
 5.00000E+08 1.43517E-19
 5.50000E+08 1.44528E-19
 6.00000E+08 1.45451E-19
 7.00000E+08 1.47087E-19
 8.00000E+08 1.48504E-19
 9.00000E+08 1.49754E-19
 1.00000E+09 1.50873E-19
 *** Positron ionisation cross sections,  IZ =  8,  NSHELL =  1,  NDATA = 198
 4.00000E+01 0.00000E+00
 4.50000E+01 0.00000E+00
 5.00000E+01 0.00000E+00
 5.50000E+01 0.00000E+00
 6.00000E+01 0.00000E+00
 7.00000E+01 0.00000E+00
 8.00000E+01 0.00000E+00
 9.00000E+01 0.00000E+00
 1.00000E+02 0.00000E+00
 1.10000E+02 0.00000E+00
 1.25000E+02 0.00000E+00
 1.40000E+02 0.00000E+00
 1.50000E+02 0.00000E+00
 1.75000E+02 0.00000E+00
 2.00000E+02 0.00000E+00
 2.20000E+02 0.00000E+00
 2.50000E+02 0.00000E+00
 3.00000E+02 0.00000E+00
 3.50000E+02 0.00000E+00
 4.00000E+02 0.00000E+00
 4.50000E+02 0.00000E+00
 5.00000E+02 0.00000E+00
 5.38000E+02 0.00000E+00
 5.38000E+02 0.00000E+00
 5.50000E+02 8.48401E-24
 5.64900E+02 3.49092E-23
 5.71891E+02 5.60188E-23
 5.78968E+02 8.46080E-23
 5.86133E+02 1.22128E-22
 5.93386E+02 1.70112E-22
 6.00000E+02 2.23647E-22
 6.08163E+02 3.03927E-22
 6.15689E+02 3.93096E-22
 6.23309E+02 4.99378E-22
 6.31022E+02 6.24484E-22
 6.38831E+02 7.70119E-22
 6.46737E+02 9.37962E-22
 6.54740E+02 1.12966E-21
 6.62843E+02 1.34679E-21
 6.71045E+02 1.59091E-21
 6.79350E+02 1.86347E-21
 6.87757E+02 2.16585E-21
 6.96268E+02 2.49935E-21
 7.00000E+02 2.65433E-21
 7.04884E+02 2.86517E-21
 7.13607E+02 3.26440E-21
 7.22438E+02 3.69803E-21
 7.31378E+02 4.16694E-21
 7.40429E+02 4.67188E-21
 7.49592E+02 5.21351E-21
 7.58868E+02 5.79234E-21
 7.68259E+02 6.40877E-21
 7.77766E+02 7.06310E-21
 7.87391E+02 7.75547E-21
 7.97135E+02 8.48594E-21
 8.00000E+02 8.70616E-21
 8.07000E+02 9.25443E-21
 8.51026E+02 1.29095E-20
 9.00000E+02 1.75200E-20
 9.46414E+02 2.22084E-20
 1.00000E+03 2.77801E-20
 1.05249E+03 3.32529E-20
 1.10000E+03 3.81518E-20
 1.10991E+03 3.91637E-20
 1.17046E+03 4.52219E-20
 1.23432E+03 5.13168E-20
 1.25000E+03 5.27606E-20
 1.30166E+03 5.73627E-20
 1.37267E+03 6.32868E-20
 1.40000E+03 6.54340E-20
 1.44755E+03 6.89866E-20
 1.50000E+03 7.26319E-20
 1.52653E+03 7.43670E-20
 1.60980E+03 7.93660E-20
 1.69763E+03 8.39623E-20
 1.75000E+03 8.63923E-20
 1.79024E+03 8.81083E-20
 1.88791E+03 9.17586E-20
 2.00000E+03 9.51501E-20
 2.09952E+03 9.75589E-20
 2.20000E+03 9.94990E-20
 2.33484E+03 1.01432E-19
 2.46222E+03 1.02663E-19
 2.50000E+03 1.02936E-19
 2.59655E+03 1.03465E-19
 2.73820E+03 1.03854E-19
 2.88758E+03 1.03850E-19
 3.00000E+03 1.03625E-19
 3.04511E+03 1.03490E-19
 3.21124E+03 1.02808E-19
 3.38643E+03 1.01837E-19
 3.50000E+03 1.01101E-19
 3.57117E+03 1.00607E-19
 3.76600E+03 9.91478E-20
 4.00000E+03 9.72531E-20
 4.50000E+03 9.29767E-20
 5.00000E+03 8.86638E-20
 5.50000E+03 8.45019E-20
 6.00000E+03 8.06109E-20
 7.00000E+03 7.36336E-20
 8.00000E+03 6.77490E-20
 9.00000E+03 6.26544E-20
 1.00000E+04 5.81898E-20
 1.10000E+04 5.43937E-20
 1.25000E+04 4.96212E-20
 1.40000E+04 4.56949E-20
 1.50000E+04 4.34470E-20
 1.75000E+04 3.87817E-20
 2.00000E+04 3.51220E-20
 2.20000E+04 3.27175E-20
 2.50000E+04 2.97466E-20
 3.00000E+04 2.59740E-20
 3.50000E+04 2.31730E-20
 4.00000E+04 2.10108E-20
 4.50000E+04 1.92830E-20
 5.00000E+04 1.78731E-20
 5.50000E+04 1.67029E-20
 6.00000E+04 1.57103E-20
 7.00000E+04 1.41183E-20
 8.00000E+04 1.29023E-20
 9.00000E+04 1.19407E-20
 1.00000E+05 1.11618E-20
 1.10000E+05 1.05147E-20
 1.25000E+05 9.73444E-21
 1.40000E+05 9.11632E-21
 1.50000E+05 8.77096E-21
 1.75000E+05 8.07778E-21
 2.00000E+05 7.55747E-21
 2.20000E+05 7.22740E-21
 2.50000E+05 6.83411E-21
 3.00000E+05 6.36173E-21
 3.50000E+05 6.03482E-21
 4.00000E+05 5.79951E-21
 4.50000E+05 5.62530E-21
 5.00000E+05 5.49373E-21
 5.50000E+05 5.39296E-21
 6.00000E+05 5.31507E-21
 7.00000E+05 5.20747E-21
 8.00000E+05 5.14284E-21
 9.00000E+05 5.10572E-21
 1.00000E+06 5.08688E-21
 1.10000E+06 5.08054E-21
 1.25000E+06 5.08663E-21
 1.40000E+06 5.10473E-21
 1.50000E+06 5.12109E-21
 1.75000E+06 5.17078E-21
 2.00000E+06 5.22700E-21
 2.20000E+06 5.27372E-21
 2.50000E+06 5.34390E-21
 3.00000E+06 5.45740E-21
 3.50000E+06 5.56354E-21
 4.00000E+06 5.66176E-21
 4.50000E+06 5.75255E-21
 5.00000E+06 5.83664E-21
 5.50000E+06 5.91490E-21
 6.00000E+06 5.98777E-21
 7.00000E+06 6.12013E-21
 8.00000E+06 6.23753E-21
 9.00000E+06 6.34263E-21
 1.00000E+07 6.43815E-21
 1.10000E+07 6.52540E-21
 1.25000E+07 6.64339E-21
 1.40000E+07 6.74896E-21
 1.50000E+07 6.81367E-21
 1.75000E+07 6.95906E-21
 2.00000E+07 7.08581E-21
 2.20000E+07 7.17674E-21
 2.50000E+07 7.29941E-21
 3.00000E+07 7.47473E-21
 3.50000E+07 7.62364E-21
 4.00000E+07 7.75314E-21
 4.50000E+07 7.86744E-21
 5.00000E+07 7.96998E-21
 5.50000E+07 8.06296E-21
 6.00000E+07 8.14756E-21
 7.00000E+07 8.29807E-21
 8.00000E+07 8.42877E-21
 9.00000E+07 8.54380E-21
 1.00000E+08 8.64708E-21
 1.10000E+08 8.74038E-21
 1.25000E+08 8.86585E-21
 1.40000E+08 8.97696E-21
 1.50000E+08 9.04470E-21
 1.75000E+08 9.19600E-21
 2.00000E+08 9.32726E-21
 2.20000E+08 9.42126E-21
 2.50000E+08 9.54652E-21
 3.00000E+08 9.72615E-21
 3.50000E+08 9.87750E-21
 4.00000E+08 1.00091E-20
 4.50000E+08 1.01249E-20
 5.00000E+08 1.02286E-20
 5.50000E+08 1.03224E-20
 6.00000E+08 1.04080E-20
 7.00000E+08 1.05597E-20
 8.00000E+08 1.06911E-20
 9.00000E+08 1.08071E-20
 1.00000E+09 1.09108E-20
 *** Electron scaled bremss x-section,  ZEQ = 4.69042E+00,  NDATA =  57
 1.00E+03 1.45622E+01 1.46929E+01 1.48147E+01 1.49206E+01 1.50126E+01
          1.51641E+01 1.52715E+01 1.53387E+01 1.53691E+01 1.53693E+01
          1.53477E+01 1.53074E+01 1.52516E+01 1.51823E+01 1.51012E+01
          1.50105E+01 1.49131E+01 1.48162E+01 1.47278E+01 1.46537E+01
          1.45981E+01 1.45755E+01 1.45524E+01 1.45317E+01 1.45045E+01
          1.44968E+01 1.44907E+01 1.44899E+01 1.44894E+01 1.44894E+01
          1.44894E+01 1.44888E+01                                     1.297E+01
 1.50E+03 1.66374E+01 1.67805E+01 1.69111E+01 1.70195E+01 1.71082E+01
          1.72396E+01 1.73074E+01 1.73162E+01 1.72728E+01 1.71891E+01
          1.70810E+01 1.69525E+01 1.68056E+01 1.66444E+01 1.64760E+01
          1.63071E+01 1.61373E+01 1.59643E+01 1.57878E+01 1.56148E+01
          1.54562E+01 1.53844E+01 1.53146E+01 1.52629E+01 1.52229E+01
          1.52129E+01 1.52048E+01 1.52038E+01 1.52030E+01 1.52027E+01
          1.52026E+01 1.52042E+01                                     1.429E+01
 2.00E+03 1.81119E+01 1.82798E+01 1.84254E+01 1.85319E+01 1.86044E+01
          1.86764E+01 1.86640E+01 1.85932E+01 1.84753E+01 1.83227E+01
          1.81507E+01 1.79601E+01 1.77480E+01 1.75169E+01 1.72800E+01
          1.70492E+01 1.68236E+01 1.65979E+01 1.63698E+01 1.61495E+01
          1.59413E+01 1.58385E+01 1.57436E+01 1.56791E+01 1.56235E+01
          1.56098E+01 1.55997E+01 1.55985E+01 1.55974E+01 1.55971E+01
          1.55968E+01 1.55983E+01                                     1.513E+01
 3.00E+03 2.02059E+01 2.03766E+01 2.05144E+01 2.05946E+01 2.06258E+01
          2.05876E+01 2.04415E+01 2.02331E+01 1.99782E+01 1.96911E+01
          1.93887E+01 1.90757E+01 1.87541E+01 1.84294E+01 1.81070E+01
          1.77932E+01 1.74890E+01 1.71938E+01 1.69070E+01 1.66289E+01
          1.63640E+01 1.62407E+01 1.61251E+01 1.60413E+01 1.59621E+01
          1.59435E+01 1.59290E+01 1.59272E+01 1.59257E+01 1.59255E+01
          1.59253E+01 1.59258E+01                                     1.611E+01
 4.00E+03 2.16891E+01 2.18487E+01 2.19669E+01 2.20130E+01 2.19982E+01
          2.18487E+01 2.15763E+01 2.12423E+01 2.08665E+01 2.04648E+01
          2.00559E+01 1.96463E+01 1.92409E+01 1.88456E+01 1.84599E+01
          1.80860E+01 1.77261E+01 1.73827E+01 1.70569E+01 1.67435E+01
          1.64482E+01 1.63161E+01 1.61913E+01 1.60967E+01 1.60020E+01
          1.59798E+01 1.59623E+01 1.59600E+01 1.59583E+01 1.59580E+01
          1.59578E+01 1.59578E+01                                     1.666E+01
 5.00E+03 2.28837E+01 2.29591E+01 2.30039E+01 2.29952E+01 2.29418E+01
          2.27426E+01 2.24209E+01 2.19984E+01 2.15022E+01 2.09706E+01
          2.04477E+01 1.99443E+01 1.94629E+01 1.90077E+01 1.85774E+01
          1.81719E+01 1.77872E+01 1.74119E+01 1.70397E+01 1.66871E+01
          1.63773E+01 1.62413E+01 1.61095E+01 1.60062E+01 1.59023E+01
          1.58773E+01 1.58577E+01 1.58553E+01 1.58532E+01 1.58531E+01
          1.58529E+01 1.58526E+01                                     1.699E+01
 6.00E+03 2.38215E+01 2.38650E+01 2.38747E+01 2.38258E+01 2.37287E+01
          2.34379E+01 2.30200E+01 2.25000E+01 2.19086E+01 2.12884E+01
          2.06872E+01 2.01161E+01 1.95772E+01 1.90734E+01 1.86010E+01
          1.81574E+01 1.77382E+01 1.73313E+01 1.69301E+01 1.65532E+01
          1.62261E+01 1.60841E+01 1.59464E+01 1.58376E+01 1.57272E+01
          1.57006E+01 1.56797E+01 1.56771E+01 1.56749E+01 1.56747E+01
          1.56745E+01 1.56741E+01                                     1.720E+01
 8.00E+03 2.52201E+01 2.52944E+01 2.53046E+01 2.52037E+01 2.50134E+01
          2.44754E+01 2.37937E+01 2.30716E+01 2.23393E+01 2.16172E+01
          2.09274E+01 2.02728E+01 1.96524E+01 1.90659E+01 1.85106E+01
          1.79846E+01 1.74893E+01 1.70247E+01 1.65905E+01 1.61848E+01
          1.58185E+01 1.56597E+01 1.55099E+01 1.53954E+01 1.52774E+01
          1.52494E+01 1.52272E+01 1.52242E+01 1.52221E+01 1.52218E+01
          1.52216E+01 1.52213E+01                                     1.743E+01
 1.00E+04 2.63416E+01 2.63671E+01 2.63210E+01 2.61511E+01 2.58834E+01
          2.51842E+01 2.43427E+01 2.34757E+01 2.26158E+01 2.17845E+01
          2.10035E+01 2.02707E+01 1.95798E+01 1.89255E+01 1.83102E+01
          1.77328E+01 1.71928E+01 1.66854E+01 1.62078E+01 1.57648E+01
          1.53686E+01 1.51937E+01 1.50302E+01 1.49088E+01 1.47885E+01
          1.47600E+01 1.47374E+01 1.47344E+01 1.47322E+01 1.47319E+01
          1.47317E+01 1.47315E+01                                     1.752E+01
 1.50E+04 2.83350E+01 2.82414E+01 2.80631E+01 2.77392E+01 2.73052E+01
          2.62743E+01 2.51194E+01 2.39797E+01 2.28886E+01 2.18643E+01
          2.09242E+01 2.00534E+01 1.92375E+01 1.84606E+01 1.77361E+01
          1.70639E+01 1.64392E+01 1.58480E+01 1.52829E+01 1.47607E+01
          1.42927E+01 1.40759E+01 1.38762E+01 1.37373E+01 1.36142E+01
          1.35854E+01 1.35630E+01 1.35601E+01 1.35580E+01 1.35577E+01
          1.35575E+01 1.35575E+01                                     1.753E+01
 2.00E+04 3.04886E+01 2.98481E+01 2.91926E+01 2.85149E+01 2.78362E+01
          2.65412E+01 2.53017E+01 2.41144E+01 2.29771E+01 2.18884E+01
          2.08472E+01 1.98526E+01 1.89159E+01 1.80310E+01 1.72049E+01
          1.64300E+01 1.57083E+01 1.50428E+01 1.44339E+01 1.38702E+01
          1.33555E+01 1.31341E+01 1.29539E+01 1.28316E+01 1.26021E+01
          1.25150E+01 1.25381E+01 1.25526E+01 1.25448E+01 1.25400E+01
          1.25484E+01 1.25430E+01                                     1.741E+01
 3.00E+04 3.15749E+01 3.11608E+01 3.06496E+01 2.99737E+01 2.91872E+01
          2.75137E+01 2.58096E+01 2.42287E+01 2.27887E+01 2.14834E+01
          2.02950E+01 1.92104E+01 1.82024E+01 1.72430E+01 1.63497E+01
          1.55189E+01 1.47386E+01 1.39912E+01 1.32674E+01 1.25852E+01
          1.19400E+01 1.16203E+01 1.13289E+01 1.11385E+01 1.09968E+01
          1.09650E+01 1.09419E+01 1.09394E+01 1.09372E+01 1.09368E+01
          1.09367E+01 1.09368E+01                                     1.720E+01
 4.00E+04 3.27975E+01 3.22095E+01 3.15241E+01 3.06761E+01 2.97264E+01
          2.77756E+01 2.58542E+01 2.41119E+01 2.25514E+01 2.11507E+01
          1.98769E+01 1.87152E+01 1.76424E+01 1.66237E+01 1.56719E+01
          1.47847E+01 1.39454E+01 1.31388E+01 1.23557E+01 1.16065E+01
          1.08799E+01 1.05162E+01 1.01831E+01 9.96326E+00 9.79877E+00
          9.76234E+00 9.73588E+00 9.73295E+00 9.73045E+00 9.73000E+00
          9.72986E+00 9.72990E+00                                     1.699E+01
 5.00E+04 3.41766E+01 3.30640E+01 3.19400E+01 3.08025E+01 2.96887E+01
          2.76340E+01 2.57455E+01 2.40051E+01 2.23995E+01 2.09166E+01
          1.95443E+01 1.82839E+01 1.71370E+01 1.60724E+01 1.50829E+01
