 PENELOPE (v. 2018)  Material data file ...............
 Material: IRON  (26)                                                    
 Mass density = 7.87400000E+00 g/cm**3
 Number of elements in the molecule =  1
   atomic number = 26,  atoms/molecule = 1.00000000E+00
 Mean excitation energy = 2.86000000E+02 eV
 Number of oscillators = 10 (E/P inelastic model)
   1  2.00000000E+00  0.00000000E+00  1.53019059E+01   0  30
   2  2.00000000E+00  9.00000000E+00  2.64402616E+01  26  30
   3  4.00000000E+00  9.00000000E+00  2.92435688E+01  26  30
   4  4.00000000E+00  5.90000000E+01  1.53776780E+02  26   7
   5  2.00000000E+00  6.10000000E+01  1.58429966E+02  26   6
   6  2.00000000E+00  9.80000000E+01  2.54041554E+02  26   5
   7  4.00000000E+00  7.13000000E+02  1.84612986E+03  26   4
   8  2.00000000E+00  7.26000000E+02  1.87974544E+03  26   3
   9  2.00000000E+00  8.51000000E+02  2.20337982E+03  26   2
  10  2.00000000E+00  7.11700000E+03  1.84267987E+04  26   1
 Number of shells =  9 (Compton IA model)
   1  2.00000000E+00  0.00000000E+00  8.68882029E-01   0  30
   2  6.00000000E+00  9.00000000E+00  2.02136000E-01  26  30
   3  4.00000000E+00  5.90000000E+01  2.22909000E-01  26   7
   4  2.00000000E+00  6.10000000E+01  2.20645000E-01  26   6
   5  2.00000000E+00  9.80000000E+01  3.51458000E-01  26   5
   6  4.00000000E+00  7.13000000E+02  6.49062000E-02  26   4
   7  2.00000000E+00  7.26000000E+02  6.41844000E-02  26   3
   8  2.00000000E+00  8.51000000E+02  1.25935000E-01  26   2
   9  2.00000000E+00  7.11700000E+03  3.31215000E-02  26   1
 *** RELAX:  Z = 26,  no. of shells = 10,  no. of transitions =  148
   1 1s1/2 2  7.11700E+03  1.19000E+00  3.31215E-02
   2 2s1/2 2  8.51000E+02  7.00000E+00  1.25935E-01
   3 2p1/2 2  7.26000E+02  1.14000E+00  6.41844E-02
   4 2p3/2 4  7.13000E+02  4.10000E-01  6.49062E-02
   5 3s1/2 2  9.80000E+01  2.40000E+00  3.51458E-01
   6 3p1/2 2  6.10000E+01  1.23000E+00  2.20645E-01
   7 3p3/2 4  5.90000E+01  1.23000E+00  2.22909E-01
   8 3d3/2 4  9.00000E+00  0.00000E+00  2.01788E-01
   9 3d5/2 2  9.00000E+00  0.00000E+00  2.02832E-01
  10 4s1/2 2  7.87000E+00  0.00000E+00  1.53122E+00
   1  3  0  1.01391E-01  6.39103E+03
   1  4  0  1.98621E-01  6.40401E+03
   1  6  0  1.22111E-02  7.05818E+03
   1  7  0  2.40042E-02  7.05818E+03
   1  8  0  6.00794E-06  7.10826E+03
   1  9  0  8.77226E-06  7.10826E+03
   1  2  2  4.47039E-02  5.39748E+03
   1  2  3  4.96309E-02  5.50689E+03
   1  2  4  9.05528E-02  5.51975E+03
   1  2  5  1.20010E-02  6.13943E+03
   1  2  6  6.37861E-03  6.17240E+03
   1  2  7  1.15700E-02  6.17399E+03
   1  2  8  1.85335E-04  6.22753E+03
   1  2  9  2.57546E-04  6.22770E+03
   1  2 10  1.06145E-03  6.23291E+03
   1  3  3  8.91045E-03  5.61630E+03
   1  3  4  2.13819E-01  5.62916E+03
   1  3  5  5.68040E-03  6.24884E+03
   1  3  6  2.15909E-03  6.28181E+03
   1  3  7  2.36911E-02  6.28340E+03
   1  3  8  2.57540E-04  6.33694E+03
   1  3  9  9.60385E-04  6.33711E+03
   1  3 10  4.93427E-04  6.34232E+03
   1  4  4  1.19207E-01  5.64202E+03
   1  4  5  1.04085E-02  6.26170E+03
   1  4  6  2.36893E-02  6.29467E+03
   1  4  7  2.68353E-02  6.29626E+03
   1  4  8  1.19389E-03  6.34980E+03
   1  4  9  1.17463E-03  6.34997E+03
   1  4 10  9.02593E-04  6.35518E+03
   1  5  5  8.02277E-04  6.88138E+03
   1  5  6  7.39263E-04  6.91435E+03
   1  5  7  1.34525E-03  6.91594E+03
   1  5  8  1.93914E-05  6.96948E+03
   1  5  9  2.66629E-05  6.96965E+03
   1  5 10  1.40581E-04  6.97486E+03
   1  6  6  1.28144E-04  6.94732E+03
   1  6  7  2.71062E-03  6.94891E+03
   1  6  8  2.21776E-05  7.00245E+03
   1  6  9  8.87081E-05  7.00262E+03
   1  6 10  6.40678E-05  7.00783E+03
   1  7  7  1.58655E-03  6.95050E+03
   1  7  8  1.16223E-04  7.00404E+03
   1  7  9  1.11167E-04  7.00421E+03
   1  7 10  1.21269E-04  7.00942E+03
   1  8  9  3.85858E-06  7.05775E+03
   1  8 10  3.85858E-06  7.06296E+03
   1  9 10  3.51272E-06  7.06313E+03
   2  3  0  2.87212E-05  1.09410E+02
   2  4  0  1.12411E-04  1.22270E+02
   2  6  0  5.33553E-04  7.92200E+02
   2  7  0  7.92105E-04  7.92200E+02
   2  8  0  1.62101E-06  8.44520E+02
   2  9  0  2.20171E-06  8.45440E+02
   2  3  8  4.09703E-02  9.65000E+01
   2  3  9  6.68427E-02  9.66700E+01
   2  3 10  6.19976E-03  1.01880E+02
   2  4  6  6.47652E-02  5.42300E+01
   2  4  7  1.45310E-01  5.58200E+01
   2  4  8  9.68238E-02  1.09360E+02
   2  4  9  1.37175E-01  1.09530E+02
   2  4 10  1.13749E-02  1.14740E+02
   2  5  5  1.42253E-02  6.40940E+02
   2  5  6  2.56412E-02  6.73910E+02
   2  5  7  5.02067E-02  6.75500E+02
   2  5  8  1.57957E-02  7.29040E+02
   2  5  9  2.33060E-02  7.29210E+02
   2  5 10  2.24577E-03  7.34420E+02
   2  6  6  4.09652E-04  7.06880E+02
   2  6  7  6.68243E-04  7.08470E+02
   2  6  8  2.32428E-04  7.62010E+02
   2  6  9  4.40741E-03  7.62180E+02
   2  6 10  1.77081E-03  7.67390E+02
   2  7  7  1.17810E-03  7.10060E+02
   2  7  8  4.46042E-03  7.63600E+02
   2  7  9  3.23254E-03  7.63770E+02
   2  7 10  3.28901E-03  7.68980E+02
   2  8  8  2.58444E-04  8.17140E+02
   2  8  9  1.35249E-02  8.17310E+02
   2  8 10  1.10876E-03  8.22520E+02
   2  9  9  3.53869E-03  8.17480E+02
   2  9 10  1.55434E-03  8.22690E+02
   3  5  0  4.03768E-03  6.27800E+02
   3  7  0  9.18115E-06  6.70400E+02
   3  8  0  1.40199E-03  7.18320E+02
   3 10  0  8.27386E-05  7.26020E+02
   3  5  5  5.72017E-03  5.31530E+02
   3  5  6  1.04744E-01  5.64500E+02
   3  5  7  8.48542E-03  5.66090E+02
   3  5  8  3.52272E-03  6.19630E+02
   3  5  9  6.29489E-03  6.19800E+02
   3  5 10  8.72234E-04  6.25010E+02
   3  6  6  8.91640E-02  5.97470E+02
   3  6  7  3.09321E-01  5.99060E+02
   3  6  8  6.45901E-02  6.52600E+02
   3  6  9  1.25120E-01  6.52770E+02
   3  6 10  9.30123E-03  6.57980E+02
   3  7  7  8.61400E-03  6.00650E+02
   3  7  8  7.55051E-02  6.54190E+02
   3  7  9  1.14600E-02  6.54360E+02
   3  7 10  6.69397E-04  6.59570E+02
   3  8  8  2.94353E-02  7.07730E+02
   3  8  9  1.34354E-01  7.07900E+02
   3  8 10  3.10265E-04  7.13110E+02
   3  9  9  6.45717E-03  7.08070E+02
   3  9 10  5.27395E-04  7.13280E+02
   4  5  0  3.75953E-03  6.15300E+02
   4  6  0  4.56623E-06  6.50100E+02
   4  7  0  4.45063E-06  6.56800E+02
   4  8  0  1.14991E-04  7.04800E+02
   4  9  0  1.28521E-03  7.04800E+02
   4 10  0  7.69576E-05  7.13160E+02
   4  5  5  5.47610E-03  5.18670E+02
   4  5  6  3.75614E-03  5.51640E+02
   4  5  7  1.02560E-01  5.53230E+02
   4  5  8  4.09120E-03  6.06770E+02
   4  5  9  5.60270E-03  6.06940E+02
   4  5 10  8.34691E-04  6.12150E+02
   4  6  6  1.43545E-03  5.84610E+02
   4  6  7  1.55075E-01  5.86200E+02
   4  6  8  3.86376E-03  6.39740E+02
   4  6  9  3.74865E-02  6.39910E+02
   4  6 10  2.90883E-04  6.45120E+02
   4  7  7  2.29412E-01  5.87790E+02
   4  7  8  9.02988E-02  6.41330E+02
   4  7  9  1.34973E-01  6.41500E+02
   4  7 10  9.09931E-03  6.46710E+02
   4  8  8  5.93307E-03  6.94870E+02
   4  8  9  1.20726E-01  6.95040E+02
   4  8 10  4.31648E-04  7.00250E+02
   4  9  9  8.28033E-02  6.95210E+02
   4  9 10  6.04329E-04  7.00420E+02
   5  8  8  1.07986E-03  7.51900E+01
   5  8  9  2.33924E-02  7.53600E+01
   5  8 10  2.57210E-02  8.05700E+01
   5  9  9  6.79262E-03  7.55300E+01
   5  9 10  3.82746E-02  8.07400E+01
   6  8  0  3.89240E-06  5.51300E+01
   6 10  0  3.74790E-07  6.05100E+01
   7  8  0  3.49259E-07  5.35400E+01
   7  9  0  3.18269E-06  5.37100E+01
   7 10  0  1.15860E-07  5.89200E+01
   2 30 30  2.58014E-01  3.13991E+01
   3 30  0  2.04719E-10  1.28600E+01
   5 30  0  1.44183E-05  3.40828E+01
   5 30 30  9.04726E-01  2.23033E+01
   6 30 30  9.99996E-01  4.28322E+01
   7 30 30  9.99996E-01  4.13518E+01
 *** Electron ionisation cross sections,  IZ = 26,  NSHELL =  7,  NDATA = 448
 4.00000E+01 0.00000E+00 0.00000E+00 0.00000E+00 0.00000E+00 0.00000E+00 0.00000E+00 0.00000E+00
 4.50000E+01 0.00000E+00 0.00000E+00 0.00000E+00 0.00000E+00 0.00000E+00 0.00000E+00 0.00000E+00
 5.00000E+01 0.00000E+00 0.00000E+00 0.00000E+00 0.00000E+00 0.00000E+00 0.00000E+00 0.00000E+00
 5.50000E+01 0.00000E+00 0.00000E+00 0.00000E+00 0.00000E+00 0.00000E+00 0.00000E+00 0.00000E+00
 5.90000E+01 0.00000E+00 0.00000E+00 0.00000E+00 0.00000E+00 0.00000E+00 0.00000E+00 0.00000E+00
 5.90000E+01 0.00000E+00 0.00000E+00 0.00000E+00 0.00000E+00 0.00000E+00 0.00000E+00 0.00000E+00
 6.00000E+01 0.00000E+00 0.00000E+00 0.00000E+00 0.00000E+00 0.00000E+00 0.00000E+00 1.90054E-19
 6.10000E+01 0.00000E+00 0.00000E+00 0.00000E+00 0.00000E+00 0.00000E+00 0.00000E+00 3.72080E-19
 6.10000E+01 0.00000E+00 0.00000E+00 0.00000E+00 0.00000E+00 0.00000E+00 0.00000E+00 3.72080E-19
 6.49000E+01 0.00000E+00 0.00000E+00 0.00000E+00 0.00000E+00 0.00000E+00 3.31058E-19 1.01456E-18
 6.55978E+01 0.00000E+00 0.00000E+00 0.00000E+00 0.00000E+00 0.00000E+00 3.84903E-19 1.11948E-18
 6.63032E+01 0.00000E+00 0.00000E+00 0.00000E+00 0.00000E+00 0.00000E+00 4.37848E-19 1.22275E-18
 6.71000E+01 0.00000E+00 0.00000E+00 0.00000E+00 0.00000E+00 0.00000E+00 4.95951E-19 1.33621E-18
 6.78215E+01 0.00000E+00 0.00000E+00 0.00000E+00 0.00000E+00 0.00000E+00 5.47063E-19 1.43612E-18
 6.85507E+01 0.00000E+00 0.00000E+00 0.00000E+00 0.00000E+00 0.00000E+00 5.97344E-19 1.53450E-18
 6.92878E+01 0.00000E+00 0.00000E+00 0.00000E+00 0.00000E+00 0.00000E+00 6.46813E-19 1.63139E-18
 7.00000E+01 0.00000E+00 0.00000E+00 0.00000E+00 0.00000E+00 0.00000E+00 6.93374E-19 1.72266E-18
 7.07858E+01 0.00000E+00 0.00000E+00 0.00000E+00 0.00000E+00 0.00000E+00 7.43398E-19 1.82081E-18
 7.15470E+01 0.00000E+00 0.00000E+00 0.00000E+00 0.00000E+00 0.00000E+00 7.90549E-19 1.91340E-18
 7.23163E+01 0.00000E+00 0.00000E+00 0.00000E+00 0.00000E+00 0.00000E+00 8.36964E-19 2.00462E-18
 7.30938E+01 0.00000E+00 0.00000E+00 0.00000E+00 0.00000E+00 0.00000E+00 8.82659E-19 2.09449E-18
 7.38798E+01 0.00000E+00 0.00000E+00 0.00000E+00 0.00000E+00 0.00000E+00 9.27649E-19 2.18304E-18
 7.46742E+01 0.00000E+00 0.00000E+00 0.00000E+00 0.00000E+00 0.00000E+00 9.71951E-19 2.27030E-18
 7.54771E+01 0.00000E+00 0.00000E+00 0.00000E+00 0.00000E+00 0.00000E+00 1.01558E-18 2.35628E-18
 7.62886E+01 0.00000E+00 0.00000E+00 0.00000E+00 0.00000E+00 0.00000E+00 1.05855E-18 2.44102E-18
 7.71089E+01 0.00000E+00 0.00000E+00 0.00000E+00 0.00000E+00 0.00000E+00 1.10087E-18 2.52454E-18
 7.79380E+01 0.00000E+00 0.00000E+00 0.00000E+00 0.00000E+00 0.00000E+00 1.14255E-18 2.60685E-18
 7.87760E+01 0.00000E+00 0.00000E+00 0.00000E+00 0.00000E+00 0.00000E+00 1.18362E-18 2.68798E-18
 7.96231E+01 0.00000E+00 0.00000E+00 0.00000E+00 0.00000E+00 0.00000E+00 1.22407E-18 2.76795E-18
 8.00000E+01 0.00000E+00 0.00000E+00 0.00000E+00 0.00000E+00 0.00000E+00 1.24174E-18 2.80290E-18
 8.04792E+01 0.00000E+00 0.00000E+00 0.00000E+00 0.00000E+00 0.00000E+00 1.26393E-18 2.84677E-18
 8.13446E+01 0.00000E+00 0.00000E+00 0.00000E+00 0.00000E+00 0.00000E+00 1.30320E-18 2.92446E-18
 8.22192E+01 0.00000E+00 0.00000E+00 0.00000E+00 0.00000E+00 0.00000E+00 1.34188E-18 3.00104E-18
 8.31033E+01 0.00000E+00 0.00000E+00 0.00000E+00 0.00000E+00 0.00000E+00 1.38001E-18 3.07653E-18
 8.39968E+01 0.00000E+00 0.00000E+00 0.00000E+00 0.00000E+00 0.00000E+00 1.41757E-18 3.15094E-18
 8.49000E+01 0.00000E+00 0.00000E+00 0.00000E+00 0.00000E+00 0.00000E+00 1.45458E-18 3.22428E-18
 8.58129E+01 0.00000E+00 0.00000E+00 0.00000E+00 0.00000E+00 0.00000E+00 1.49105E-18 3.29657E-18
 8.67356E+01 0.00000E+00 0.00000E+00 0.00000E+00 0.00000E+00 0.00000E+00 1.52698E-18 3.36781E-18
 8.76682E+01 0.00000E+00 0.00000E+00 0.00000E+00 0.00000E+00 0.00000E+00 1.56239E-18 3.43804E-18
 8.86108E+01 0.00000E+00 0.00000E+00 0.00000E+00 0.00000E+00 0.00000E+00 1.59728E-18 3.50758E-18
 8.95636E+01 0.00000E+00 0.00000E+00 0.00000E+00 0.00000E+00 0.00000E+00 1.63165E-18 3.57859E-18
 9.00000E+01 0.00000E+00 0.00000E+00 0.00000E+00 0.00000E+00 0.00000E+00 1.64711E-18 3.61050E-18
 9.05266E+01 0.00000E+00 0.00000E+00 0.00000E+00 0.00000E+00 0.00000E+00 1.66552E-18 3.64850E-18
 9.15000E+01 0.00000E+00 0.00000E+00 0.00000E+00 0.00000E+00 0.00000E+00 1.69889E-18 3.71730E-18
 9.33281E+01 0.00000E+00 0.00000E+00 0.00000E+00 0.00000E+00 0.00000E+00 1.76138E-18 3.84173E-18
 9.64918E+01 0.00000E+00 0.00000E+00 0.00000E+00 0.00000E+00 0.00000E+00 1.86251E-18 4.04356E-18
 9.80000E+01 0.00000E+00 0.00000E+00 0.00000E+00 0.00000E+00 0.00000E+00 1.90788E-18 4.13436E-18
 9.80000E+01 0.00000E+00 0.00000E+00 0.00000E+00 0.00000E+00 0.00000E+00 1.90788E-18 4.13436E-18
 1.00000E+02 0.00000E+00 0.00000E+00 0.00000E+00 0.00000E+00 5.23730E-20 1.96550E-18 4.24995E-18
 1.01756E+02 0.00000E+00 0.00000E+00 0.00000E+00 0.00000E+00 9.55381E-20 2.01389E-18 4.34727E-18
 1.03789E+02 0.00000E+00 0.00000E+00 0.00000E+00 0.00000E+00 1.42610E-19 2.06760E-18 4.45553E-18
 1.07800E+02 0.00000E+00 0.00000E+00 0.00000E+00 0.00000E+00 2.27659E-19 2.16712E-18 4.65688E-18
 1.08959E+02 0.00000E+00 0.00000E+00 0.00000E+00 0.00000E+00 2.50556E-19 2.19447E-18 4.71227E-18
 1.10000E+02 0.00000E+00 0.00000E+00 0.00000E+00 0.00000E+00 2.70546E-19 2.21854E-18 4.76099E-18
 1.11315E+02 0.00000E+00 0.00000E+00 0.00000E+00 0.00000E+00 2.95072E-19 2.24830E-18 4.82119E-18
 1.12512E+02 0.00000E+00 0.00000E+00 0.00000E+00 0.00000E+00 3.16734E-19 2.27477E-18 4.87471E-18
 1.13722E+02 0.00000E+00 0.00000E+00 0.00000E+00 0.00000E+00 3.38027E-19 2.30094E-18 4.92759E-18
 1.14944E+02 0.00000E+00 0.00000E+00 0.00000E+00 0.00000E+00 3.58968E-19 2.32681E-18 4.97982E-18
 1.16180E+02 0.00000E+00 0.00000E+00 0.00000E+00 0.00000E+00 3.79574E-19 2.35237E-18 5.03141E-18
 1.17429E+02 0.00000E+00 0.00000E+00 0.00000E+00 0.00000E+00 3.99861E-19 2.37763E-18 5.08235E-18
 1.18692E+02 0.00000E+00 0.00000E+00 0.00000E+00 0.00000E+00 4.19844E-19 2.40256E-18 5.13262E-18
 1.19968E+02 0.00000E+00 0.00000E+00 0.00000E+00 0.00000E+00 4.39537E-19 2.42718E-18 5.18224E-18
 1.21258E+02 0.00000E+00 0.00000E+00 0.00000E+00 0.00000E+00 4.58952E-19 2.45147E-18 5.23118E-18
 1.22562E+02 0.00000E+00 0.00000E+00 0.00000E+00 0.00000E+00 4.78100E-19 2.47544E-18 5.27945E-18
 1.23880E+02 0.00000E+00 0.00000E+00 0.00000E+00 0.00000E+00 4.96993E-19 2.49908E-18 5.32703E-18
 1.25000E+02 0.00000E+00 0.00000E+00 0.00000E+00 0.00000E+00 5.12703E-19 2.51872E-18 5.36655E-18
 1.25212E+02 0.00000E+00 0.00000E+00 0.00000E+00 0.00000E+00 5.15640E-19 2.52238E-18 5.37394E-18
 1.26558E+02 0.00000E+00 0.00000E+00 0.00000E+00 0.00000E+00 5.34050E-19 2.54535E-18 5.42015E-18
 1.27919E+02 0.00000E+00 0.00000E+00 0.00000E+00 0.00000E+00 5.52232E-19 2.56797E-18 5.46565E-18
 1.29294E+02 0.00000E+00 0.00000E+00 0.00000E+00 0.00000E+00 5.70192E-19 2.59025E-18 5.51044E-18
 1.30685E+02 0.00000E+00 0.00000E+00 0.00000E+00 0.00000E+00 5.87939E-19 2.61217E-18 5.55449E-18
 1.32090E+02 0.00000E+00 0.00000E+00 0.00000E+00 0.00000E+00 6.05477E-19 2.63374E-18 5.59779E-18
 1.33510E+02 0.00000E+00 0.00000E+00 0.00000E+00 0.00000E+00 6.22813E-19 2.65495E-18 5.64033E-18
 1.34946E+02 0.00000E+00 0.00000E+00 0.00000E+00 0.00000E+00 6.39951E-19 2.67578E-18 5.68210E-18
 1.36397E+02 0.00000E+00 0.00000E+00 0.00000E+00 0.00000E+00 6.56896E-19 2.69624E-18 5.72306E-18
 1.37863E+02 0.00000E+00 0.00000E+00 0.00000E+00 0.00000E+00 6.73651E-19 2.71631E-18 5.76322E-18
 1.39346E+02 0.00000E+00 0.00000E+00 0.00000E+00 0.00000E+00 6.90221E-19 2.73599E-18 5.80256E-18
 1.40000E+02 0.00000E+00 0.00000E+00 0.00000E+00 0.00000E+00 6.97422E-19 2.74449E-18 5.81953E-18
 1.40844E+02 0.00000E+00 0.00000E+00 0.00000E+00 0.00000E+00 7.06608E-19 2.75528E-18 5.84106E-18
 1.42358E+02 0.00000E+00 0.00000E+00 0.00000E+00 0.00000E+00 7.22815E-19 2.77416E-18 5.87871E-18
 1.43889E+02 0.00000E+00 0.00000E+00 0.00000E+00 0.00000E+00 7.38844E-19 2.79263E-18 5.91548E-18
 1.45436E+02 0.00000E+00 0.00000E+00 0.00000E+00 0.00000E+00 7.54696E-19 2.81068E-18 5.95138E-18
 1.47000E+02 0.00000E+00 0.00000E+00 0.00000E+00 0.00000E+00 7.70374E-19 2.82831E-18 5.98638E-18
 1.50000E+02 0.00000E+00 0.00000E+00 0.00000E+00 0.00000E+00 7.99580E-19 2.86042E-18 6.05000E-18
 1.55020E+02 0.00000E+00 0.00000E+00 0.00000E+00 0.00000E+00 8.46111E-19 2.90934E-18 6.14645E-18
 1.58747E+02 0.00000E+00 0.00000E+00 0.00000E+00 0.00000E+00 8.78834E-19 2.94193E-18 6.21051E-18
 1.63477E+02 0.00000E+00 0.00000E+00 0.00000E+00 0.00000E+00 9.18203E-19 2.97907E-18 6.28339E-18
 1.67407E+02 0.00000E+00 0.00000E+00 0.00000E+00 0.00000E+00 9.49142E-19 3.00665E-18 6.33740E-18
 1.72395E+02 0.00000E+00 0.00000E+00 0.00000E+00 0.00000E+00 9.86178E-19 3.03779E-18 6.39815E-18
 1.75000E+02 0.00000E+00 0.00000E+00 0.00000E+00 0.00000E+00 1.00457E-18 3.05247E-18 6.42667E-18
 1.76540E+02 0.00000E+00 0.00000E+00 0.00000E+00 0.00000E+00 1.01514E-18 3.06067E-18 6.44257E-18
 1.81800E+02 0.00000E+00 0.00000E+00 0.00000E+00 0.00000E+00 1.04966E-18 3.08617E-18 6.49177E-18
 1.86171E+02 0.00000E+00 0.00000E+00 0.00000E+00 0.00000E+00 1.07653E-18 3.10465E-18 6.52719E-18
 1.91718E+02 0.00000E+00 0.00000E+00 0.00000E+00 0.00000E+00 1.10840E-18 3.12493E-18 6.56591E-18
 1.96328E+02 0.00000E+00 0.00000E+00 0.00000E+00 0.00000E+00 1.13308E-18 3.13941E-18 6.59340E-18
 2.00000E+02 0.00000E+00 0.00000E+00 0.00000E+00 0.00000E+00 1.15162E-18 3.14957E-18 6.61252E-18
 2.02177E+02 0.00000E+00 0.00000E+00 0.00000E+00 0.00000E+00 1.16217E-18 3.15505E-18 6.62276E-18
 2.07038E+02 0.00000E+00 0.00000E+00 0.00000E+00 0.00000E+00 1.18459E-18 3.16591E-18 6.64280E-18
 2.13207E+02 0.00000E+00 0.00000E+00 0.00000E+00 0.00000E+00 1.21098E-18 3.17713E-18 6.66305E-18
 2.18333E+02 0.00000E+00 0.00000E+00 0.00000E+00 0.00000E+00 1.23133E-18 3.18443E-18 6.67580E-18
 2.20000E+02 0.00000E+00 0.00000E+00 0.00000E+00 0.00000E+00 1.23766E-18 3.18644E-18 6.67920E-18
 2.24839E+02 0.00000E+00 0.00000E+00 0.00000E+00 0.00000E+00 1.25531E-18 3.19128E-18 6.68713E-18
 2.30244E+02 0.00000E+00 0.00000E+00 0.00000E+00 0.00000E+00 1.27381E-18 3.19507E-18 6.69276E-18
 2.37105E+02 0.00000E+00 0.00000E+00 0.00000E+00 0.00000E+00 1.29565E-18 3.19763E-18 6.69543E-18
 2.42805E+02 0.00000E+00 0.00000E+00 0.00000E+00 0.00000E+00 1.31254E-18 3.19801E-18 6.69416E-18
 2.50000E+02 0.00000E+00 0.00000E+00 0.00000E+00 0.00000E+00 1.33227E-18 3.19643E-18 6.68832E-18
 2.56051E+02 0.00000E+00 0.00000E+00 0.00000E+00 0.00000E+00 1.34745E-18 3.19344E-18 6.67990E-18
 2.63681E+02 0.00000E+00 0.00000E+00 0.00000E+00 0.00000E+00 1.36471E-18 3.18763E-18 6.66505E-18
 2.70020E+02 0.00000E+00 0.00000E+00 0.00000E+00 0.00000E+00 1.37742E-18 3.18119E-18 6.64988E-18
 2.78066E+02 0.00000E+00 0.00000E+00 0.00000E+00 0.00000E+00 1.39141E-18 3.17141E-18 6.62833E-18
 2.84751E+02 0.00000E+00 0.00000E+00 0.00000E+00 0.00000E+00 1.40121E-18 3.16239E-18 6.60918E-18
 2.93236E+02 0.00000E+00 0.00000E+00 0.00000E+00 0.00000E+00 1.41131E-18 3.15020E-18 6.58239E-18
 3.00000E+02 0.00000E+00 0.00000E+00 0.00000E+00 0.00000E+00 1.41755E-18 3.13964E-18 6.55815E-18
 3.09233E+02 0.00000E+00 0.00000E+00 0.00000E+00 0.00000E+00 1.42365E-18 3.12347E-18 6.52080E-18
 3.16668E+02 0.00000E+00 0.00000E+00 0.00000E+00 0.00000E+00 1.42691E-18 3.10896E-18 6.48840E-18
 3.26103E+02 0.00000E+00 0.00000E+00 0.00000E+00 0.00000E+00 1.42948E-18 3.08932E-18 6.44597E-18
 3.33944E+02 0.00000E+00 0.00000E+00 0.00000E+00 0.00000E+00 1.43065E-18 3.07249E-18 6.41044E-18
 3.43894E+02 0.00000E+00 0.00000E+00 0.00000E+00 0.00000E+00 1.43132E-18 3.05094E-18 6.36486E-18
 3.50000E+02 0.00000E+00 0.00000E+00 0.00000E+00 0.00000E+00 1.43143E-18 3.03758E-18 6.33646E-18
 3.62655E+02 0.00000E+00 0.00000E+00 0.00000E+00 0.00000E+00 1.43095E-18 3.00945E-18 6.27621E-18
 3.71374E+02 0.00000E+00 0.00000E+00 0.00000E+00 0.00000E+00 1.43010E-18 2.98963E-18 6.23360E-18
 3.82440E+02 0.00000E+00 0.00000E+00 0.00000E+00 0.00000E+00 1.42836E-18 2.96398E-18 6.17862E-18
 3.91634E+02 0.00000E+00 0.00000E+00 0.00000E+00 0.00000E+00 1.42623E-18 2.94237E-18 6.13244E-18
 4.00000E+02 0.00000E+00 0.00000E+00 0.00000E+00 0.00000E+00 1.42367E-18 2.92254E-18 6.09021E-18
 4.03304E+02 0.00000E+00 0.00000E+00 0.00000E+00 0.00000E+00 1.42247E-18 2.91468E-18 6.07350E-18
 4.13000E+02 0.00000E+00 0.00000E+00 0.00000E+00 0.00000E+00 1.41842E-18 2.89154E-18 6.02438E-18
 4.25306E+02 0.00000E+00 0.00000E+00 0.00000E+00 0.00000E+00 1.41232E-18 2.86211E-18 5.96201E-18
 4.50000E+02 0.00000E+00 0.00000E+00 0.00000E+00 0.00000E+00 1.39789E-18 2.80315E-18 5.83737E-18
 4.72977E+02 0.00000E+00 0.00000E+00 0.00000E+00 0.00000E+00 1.38270E-18 2.74885E-18 5.72275E-18
 5.00000E+02 0.00000E+00 0.00000E+00 0.00000E+00 0.00000E+00 1.36334E-18 2.68611E-18 5.59040E-18
 5.25991E+02 0.00000E+00 0.00000E+00 0.00000E+00 0.00000E+00 1.34362E-18 2.62716E-18 5.46616E-18
 5.50000E+02 0.00000E+00 0.00000E+00 0.00000E+00 0.00000E+00 1.32473E-18 2.57407E-18 5.35438E-18
 5.54686E+02 0.00000E+00 0.00000E+00 0.00000E+00 0.00000E+00 1.32099E-18 2.56387E-18 5.33291E-18
 5.84947E+02 0.00000E+00 0.00000E+00 0.00000E+00 0.00000E+00 1.29651E-18 2.49933E-18 5.19724E-18
 6.00000E+02 0.00000E+00 0.00000E+00 0.00000E+00 0.00000E+00 1.28423E-18 2.46810E-18 5.13168E-18
 6.16859E+02 0.00000E+00 0.00000E+00 0.00000E+00 0.00000E+00 1.27046E-18 2.43383E-18 5.05979E-18
 6.50511E+02 0.00000E+00 0.00000E+00 0.00000E+00 0.00000E+00 1.24310E-18 2.36764E-18 4.92103E-18
 6.86000E+02 0.00000E+00 0.00000E+00 0.00000E+00 0.00000E+00 1.21470E-18 2.30098E-18 4.78137E-18
 7.00000E+02 0.00000E+00 0.00000E+00 0.00000E+00 0.00000E+00 1.20369E-18 2.27555E-18 4.72812E-18
 7.13000E+02 0.00000E+00 0.00000E+00 0.00000E+00 0.00000E+00 1.19357E-18 2.25236E-18 4.67958E-18
 7.13000E+02 0.00000E+00 0.00000E+00 0.00000E+00 0.00000E+00 1.19357E-18 2.25236E-18 4.67958E-18
 7.26000E+02 0.00000E+00 0.00000E+00 0.00000E+00 6.36548E-21 1.18356E-18 2.22958E-18 4.63192E-18
 7.26000E+02 0.00000E+00 0.00000E+00 0.00000E+00 6.36548E-21 1.18356E-18 2.22958E-18 4.63192E-18
 7.84300E+02 0.00000E+00 0.00000E+00 1.24035E-20 3.14368E-20 1.14009E-18 2.13230E-18 4.42859E-18
 7.92733E+02 0.00000E+00 0.00000E+00 1.39916E-20 3.46408E-20 1.13399E-18 2.11887E-18 4.40055E-18
 7.98600E+02 0.00000E+00 0.00000E+00 1.50686E-20 3.68128E-20 1.12978E-18 2.10962E-18 4.38123E-18
 8.00000E+02 0.00000E+00 0.00000E+00 1.53223E-20 3.73243E-20 1.12878E-18 2.10743E-18 4.37665E-18
 8.01257E+02 0.00000E+00 0.00000E+00 1.55489E-20 3.77814E-20 1.12788E-18 2.10546E-18 4.37254E-18
 8.07187E+02 0.00000E+00 0.00000E+00 1.66049E-20 3.99100E-20 1.12366E-18 2.09622E-18 4.35326E-18
 8.09872E+02 0.00000E+00 0.00000E+00 1.70758E-20 4.08592E-20 1.12175E-18 2.09206E-18 4.34457E-18
 8.15866E+02 0.00000E+00 0.00000E+00 1.81109E-20 4.29450E-20 1.11752E-18 2.08283E-18 4.32532E-18
 8.18580E+02 0.00000E+00 0.00000E+00 1.85725E-20 4.38749E-20 1.11561E-18 2.07868E-18 4.31665E-18
 8.24639E+02 0.00000E+00 0.00000E+00 1.95869E-20 4.59182E-20 1.11136E-18 2.06947E-18 4.29742E-18
 8.27382E+02 0.00000E+00 0.00000E+00 2.00392E-20 4.68292E-20 1.10945E-18 2.06532E-18 4.28876E-18
 8.33505E+02 0.00000E+00 0.00000E+00 2.10332E-20 4.88305E-20 1.10520E-18 2.05613E-18 4.26956E-18
 8.36278E+02 0.00000E+00 0.00000E+00 2.14763E-20 4.97226E-20 1.10329E-18 2.05199E-18 4.26092E-18
 8.42468E+02 0.00000E+00 0.00000E+00 2.24501E-20 5.16825E-20 1.09903E-18 2.04280E-18 4.24175E-18
 8.45270E+02 0.00000E+00 0.00000E+00 2.28842E-20 5.25560E-20 1.09711E-18 2.03867E-18 4.23312E-18
 8.51000E+02 0.00000E+00 0.00000E+00 2.37585E-20 5.43151E-20 1.09321E-18 2.03027E-18 4.21558E-18
 8.51000E+02 0.00000E+00 0.00000E+00 2.37585E-20 5.43151E-20 1.09321E-18 2.03027E-18 4.21558E-18
 8.54359E+02 0.00000E+00 3.65039E-22 2.42630E-20 5.53301E-20 1.09093E-18 2.02537E-18 4.20537E-18
 8.60682E+02 0.00000E+00 1.04055E-21 2.51970E-20 5.72084E-20 1.08667E-18 2.01622E-18 4.18626E-18
 8.63545E+02 0.00000E+00 1.34157E-21 2.56132E-20 5.80455E-20 1.08474E-18 2.01210E-18 4.17766E-18
 8.69936E+02 0.00000E+00 2.00272E-21 2.65277E-20 5.98838E-20 1.08048E-18 2.00296E-18 4.15858E-18
 8.72831E+02 0.00000E+00 2.29737E-21 2.69352E-20 6.07030E-20 1.07856E-18 1.99885E-18 4.14999E-18
 8.79290E+02 0.00000E+00 2.94456E-21 2.78303E-20 6.25019E-20 1.07429E-18 1.98972E-18 4.13095E-18
 8.82216E+02 0.00000E+00 3.23300E-21 2.82292E-20 6.33034E-20 1.07236E-18 1.98562E-18 4.12238E-18
 8.88745E+02 0.00000E+00 3.86661E-21 2.91052E-20 6.50633E-20 1.06810E-18 1.97651E-18 4.10336E-18
 8.91702E+02 0.00000E+00 4.14902E-21 2.94956E-20 6.58474E-20 1.06617E-18 1.97241E-18 4.09481E-18
 8.98301E+02 0.00000E+00 4.76942E-21 3.03528E-20 6.75689E-20 1.06191E-18 1.96332E-18 4.07583E-18
 9.00000E+02 0.00000E+00 4.92696E-21 3.05704E-20 6.80059E-20 1.06081E-18 1.96099E-18 4.07097E-18
 9.01290E+02 0.00000E+00 5.04595E-21 3.07348E-20 6.83358E-20 1.05999E-18 1.95923E-18 4.06729E-18
 9.07960E+02 0.00000E+00 5.65347E-21 3.15734E-20 7.00195E-20 1.05572E-18 1.95016E-18 4.04834E-18
 9.10981E+02 0.00000E+00 5.92429E-21 3.19471E-20 7.07694E-20 1.05380E-18 1.94607E-18 4.03982E-18
 9.17723E+02 0.00000E+00 6.51928E-21 3.27674E-20 7.24158E-20 1.04954E-18 1.93702E-18 4.02091E-18
 9.20776E+02 0.00000E+00 6.78452E-21 3.31329E-20 7.31490E-20 1.04762E-18 1.93294E-18 4.01240E-18
 9.27590E+02 0.00000E+00 7.36731E-21 3.39352E-20 7.47585E-20 1.04336E-18 1.92390E-18 3.99353E-18
 9.30676E+02 0.00000E+00 7.62712E-21 3.42925E-20 7.54753E-20 1.04145E-18 1.91984E-18 3.98504E-18
 9.36100E+02 0.00000E+00 8.07768E-21 3.49118E-20 7.67172E-20 1.03809E-18 1.91273E-18 3.97019E-18
 9.37564E+02 0.00000E+00 8.19801E-21 3.50771E-20 7.70486E-20 1.03719E-18 1.91082E-18 3.96620E-18
 9.40683E+02 0.00000E+00 8.45253E-21 3.54265E-20 7.77492E-20 1.03528E-18 1.90676E-18 3.95773E-18
 9.46165E+02 0.00000E+00 8.89393E-21 3.60319E-20 7.89629E-20 1.03192E-18 1.89966E-18 3.94292E-18
 9.47645E+02 0.00000E+00 9.01182E-21 3.61934E-20 7.92868E-20 1.03102E-18 1.89775E-18 3.93895E-18
 9.50798E+02 0.00000E+00 9.26118E-21 3.65350E-20 7.99714E-20 1.02911E-18 1.89370E-18 3.93050E-18
 9.56339E+02 0.00000E+00 9.69366E-21 3.71268E-20 8.11573E-20 1.02576E-18 1.88662E-18 3.91573E-18
 9.57835E+02 0.00000E+00 9.80916E-21 3.72847E-20 8.14738E-20 1.02486E-18 1.88472E-18 3.91177E-18
 9.61021E+02 0.00000E+00 1.00535E-20 3.76185E-20 8.21427E-20 1.02294E-18 1.88068E-18 3.90334E-18
 9.66622E+02 0.00000E+00 1.04773E-20 3.81969E-20 8.33013E-20 1.01960E-18 1.87362E-18 3.88863E-18
 9.68134E+02 0.00000E+00 1.05904E-20 3.83512E-20 8.36105E-20 1.01870E-18 1.87172E-18 3.88467E-18
 9.71355E+02 0.00000E+00 1.08299E-20 3.86774E-20 8.42639E-20 1.01678E-18 1.86769E-18 3.87628E-18
 9.77015E+02 0.00000E+00 1.12451E-20 3.92425E-20 8.53957E-20 1.01344E-18 1.86065E-18 3.86161E-18
 9.78543E+02 0.00000E+00 1.13560E-20 3.93933E-20 8.56976E-20 1.01254E-18 1.85875E-18 3.85767E-18
 9.81799E+02 0.00000E+00 1.15907E-20 3.97121E-20 8.63358E-20 1.01063E-18 1.85474E-18 3.84931E-18
 9.87521E+02 0.00000E+00 1.19976E-20 4.02642E-20 8.74411E-20 1.00728E-18 1.84772E-18 3.83471E-18
 9.89065E+02 0.00000E+00 1.21063E-20 4.04114E-20 8.77359E-20 1.00638E-18 1.84583E-18 3.83078E-18
 9.92356E+02 0.00000E+00 1.23363E-20 4.07228E-20 8.83592E-20 1.00447E-18 1.84183E-18 3.82246E-18
 9.98139E+02 0.00000E+00 1.27352E-20 4.12621E-20 8.94384E-20 1.00113E-18 1.83484E-18 3.80792E-18
 1.00000E+03 0.00000E+00 1.28621E-20 4.14335E-20 8.97815E-20 1.00005E-18 1.83260E-18 3.80326E-18
 1.00303E+03 0.00000E+00 1.30671E-20 4.17101E-20 9.03348E-20 9.98316E-19 1.82897E-18 3.79572E-18
 1.00887E+03 0.00000E+00 1.34580E-20 4.22367E-20 9.13884E-20 9.94973E-19 1.82200E-18 3.78125E-18
 1.01045E+03 0.00000E+00 1.35624E-20 4.23772E-20 9.16695E-20 9.94074E-19 1.82013E-18 3.77736E-18
 1.01381E+03 0.00000E+00 1.37834E-20 4.26742E-20 9.22634E-20 9.92164E-19 1.81616E-18 3.76911E-18
 1.01972E+03 0.00000E+00 1.41666E-20 4.31884E-20 9.32919E-20 9.88822E-19 1.80923E-18 3.75472E-18
 1.02131E+03 0.00000E+00 1.42689E-20 4.33256E-20 9.35662E-20 9.87924E-19 1.80737E-18 3.75085E-18
 1.02471E+03 0.00000E+00 1.44855E-20 4.36155E-20 9.41459E-20 9.86014E-19 1.80341E-18 3.74265E-18
 1.03068E+03 0.00000E+00 1.48611E-20 4.41175E-20 9.51495E-20 9.82675E-19 1.79651E-18 3.72833E-18
 1.03230E+03 0.00000E+00 1.49615E-20 4.42514E-20 9.54172E-20 9.81777E-19 1.79466E-18 3.72448E-18
 1.03573E+03 0.00000E+00 1.51738E-20 4.45345E-20 9.59829E-20 9.79869E-19 1.79073E-18 3.71633E-18
 1.04177E+03 0.00000E+00 1.55420E-20 4.50245E-20 9.69621E-20 9.76532E-19 1.78386E-18 3.70209E-18
 1.04340E+03 0.00000E+00 1.56404E-20 4.51552E-20 9.72233E-20 9.75635E-19 1.78202E-18 3.69827E-18
 1.04687E+03 0.00000E+00 1.58485E-20 4.54314E-20 9.77752E-20 9.73729E-19 1.77810E-18 3.69017E-18
 1.05297E+03 0.00000E+00 1.62095E-20 4.59096E-20 9.87305E-20 9.70395E-19 1.77128E-18 3.67602E-18
 1.05461E+03 0.00000E+00 1.63059E-20 4.60371E-20 9.89852E-20 9.69499E-19 1.76944E-18 3.67223E-18
 1.05812E+03 0.00000E+00 1.65100E-20 4.63066E-20 9.95235E-20 9.67595E-19 1.76556E-18 3.66417E-18
 1.06429E+03 0.00000E+00 1.68639E-20 4.67732E-20 1.00455E-19 9.64266E-19 1.75877E-18 3.65012E-18
 1.06595E+03 0.00000E+00 1.69584E-20 4.68976E-20 1.00704E-19 9.63372E-19 1.75695E-18 3.64635E-18
 1.06950E+03 0.00000E+00 1.71585E-20 4.71606E-20 1.01229E-19 9.61470E-19 1.75308E-18 3.63835E-18
 1.07573E+03 0.00000E+00 1.75054E-20 4.76157E-20 1.02135E-19 9.58147E-19 1.74634E-18 3.62439E-18
 1.07742E+03 0.00000E+00 1.75981E-20 4.77371E-20 1.02377E-19 9.57253E-19 1.74453E-18 3.62065E-18
 1.08730E+03 0.00000E+00 1.81344E-20 4.84375E-20 1.03773E-19 9.52038E-19 1.73399E-18 3.59882E-18
 1.08900E+03 0.00000E+00 1.82253E-20 4.85558E-20 1.04009E-19 9.51146E-19 1.73220E-18 3.59510E-18
 1.10000E+03 0.00000E+00 1.88035E-20 4.93033E-20 1.05507E-19 9.45418E-19 1.72068E-18 3.57122E-18
 1.11081E+03 0.00000E+00 1.93557E-20 5.00148E-20 1.06931E-19 9.39858E-19 1.70955E-18 3.54811E-18
 1.12275E+03 0.00000E+00 1.99485E-20 5.07757E-20 1.08453E-19 9.33790E-19 1.69743E-18 3.52295E-18
 1.13482E+03 0.00000E+00 2.05297E-20 5.15187E-20 1.09938E-19 9.27739E-19 1.68539E-18 3.49791E-18
