 PENELOPE (v. 2018)  Material data file ...............
 Material: SODIUM IODIDE  (253)                                          
 Mass density = 3.66700000E+00 g/cm**3
 Number of elements in the molecule =  2
   atomic number = 11,  atoms/molecule = 1.00000000E+00
   atomic number = 53,  atoms/molecule = 1.00000000E+00
 Mean excitation energy = 4.52000000E+02 eV
 Number of oscillators = 20 (E/P inelastic model)
   1  1.00000000E+00  5.13900000E+00  1.02548913E+01  11  30
   2  5.00000000E+00  1.04500000E+01  2.03471431E+01  53  30
   3  2.00000000E+00  2.06100000E+01  3.87390725E+01  53  30
   4  6.00000000E+00  3.40000000E+01  6.36831750E+01  11  30
   5  6.00000000E+00  5.60000000E+01  1.04693583E+02  53  14
   6  4.00000000E+00  5.80000000E+01  1.08280394E+02  53  13
   7  2.00000000E+00  6.60000000E+01  1.23040761E+02  11   2
   8  4.00000000E+00  1.31000000E+02  2.44109684E+02  53  12
   9  2.00000000E+00  1.41000000E+02  2.62676119E+02  53  11
  10  2.00000000E+00  1.93000000E+02  3.59516674E+02  53  10
  11  6.00000000E+00  6.26000000E+02  1.16601337E+03  53   9
  12  4.00000000E+00  6.38000000E+02  1.18835234E+03  53   8
  13  4.00000000E+00  8.81000000E+02  1.64095433E+03  53   7
  14  2.00000000E+00  9.37000000E+02  1.74525038E+03  53   6
  15  2.00000000E+00  1.07500000E+03  2.00228618E+03  11   1
  16  2.00000000E+00  1.07800000E+03  2.00787392E+03  53   5
  17  4.00000000E+00  4.56300000E+03  8.49898084E+03  53   4
  18  2.00000000E+00  4.85800000E+03  9.04844187E+03  53   3
  19  2.00000000E+00  5.19500000E+03  9.67613309E+03  53   2
  20  2.00000000E+00  3.31760000E+04  6.17931369E+04  53   1
 Number of shells = 20 (Compton IA model)
   1  1.00000000E+00  5.13900000E+00  2.06434000E+00  11  30
   2  5.00000000E+00  1.04500000E+01  6.24678000E-01  53  30
   3  2.00000000E+00  2.06100000E+01  8.52824000E-01  53  30
   4  6.00000000E+00  3.40000000E+01  2.24512333E-01  11  30
   5  6.00000000E+00  5.60000000E+01  1.60998000E-01  53  14
   6  4.00000000E+00  5.80000000E+01  1.59009000E-01  53  13
   7  2.00000000E+00  6.60000000E+01  3.89372000E-01  11   2
   8  4.00000000E+00  1.31000000E+02  1.90029000E-01  53  12
   9  2.00000000E+00  1.41000000E+02  1.83849000E-01  53  11
  10  2.00000000E+00  1.93000000E+02  2.84747000E-01  53  10
  11  6.00000000E+00  6.26000000E+02  5.21322000E-02  53   9
  12  4.00000000E+00  6.38000000E+02  5.15535000E-02  53   8
  13  4.00000000E+00  8.81000000E+02  7.73751000E-02  53   7
  14  2.00000000E+00  9.37000000E+02  7.48532000E-02  53   6
  15  2.00000000E+00  1.07500000E+03  8.13091000E-02  11   1
  16  2.00000000E+00  1.07800000E+03  1.26147000E-01  53   5
  17  4.00000000E+00  4.56300000E+03  2.85066000E-02  53   4
  18  2.00000000E+00  4.85800000E+03  2.71649000E-02  53   3
  19  2.00000000E+00  5.19500000E+03  5.46716000E-02  53   2
  20  2.00000000E+00  3.31760000E+04  1.52598000E-02  53   1
 *** RELAX:  Z = 11,  no. of shells =  5,  no. of transitions =   13
   1 1s1/2 2  1.07500E+03  2.80000E-01  8.13091E-02
   2 2s1/2 2  6.60000E+01  2.80000E-01  3.89372E-01
   3 2p1/2 2  3.40000E+01  2.00000E-02  2.24103E-01
   4 2p3/2 4  3.40000E+01  2.00000E-02  2.24717E-01
   5 3s1/2 1  5.13900E+00  0.00000E+00  2.06434E+00
   1  3  0  6.68996E-03  1.04100E+03
   1  4  0  1.32959E-02  1.07110E+03
   1  2  2  8.70552E-02  9.35040E+02
   1  2  3  8.90021E-02  9.63100E+02
   1  2  4  1.75052E-01  9.63300E+02
   1  2  5  5.73825E-03  9.94370E+02
   1  3  3  1.46296E-02  9.91160E+02
   1  3  4  3.82369E-01  9.91360E+02
   1  3  5  2.69932E-03  1.02243E+03
   1  4  4  2.18165E-01  9.91560E+02
   1  4  5  5.30407E-03  1.02263E+03
   2 30  0  1.16019E-04  2.81944E+01
   2 30 30  9.99884E-01  2.30430E+01
 *** RELAX:  Z = 53,  no. of shells = 17,  no. of transitions =  779
   1 1s1/2 2  3.31760E+04  1.07000E+01  1.52598E-02
   2 2s1/2 2  5.19500E+03  2.10000E+00  5.46716E-02
   3 2p1/2 2  4.85800E+03  2.95000E+00  2.71649E-02
   4 2p3/2 4  4.56300E+03  2.72000E+00  2.85066E-02
   5 3s1/2 2  1.07800E+03  1.04000E+01  1.26147E-01
   6 3p1/2 2  9.37000E+02  3.35000E+00  7.48532E-02
   7 3p3/2 4  8.81000E+02  4.30000E+00  7.73751E-02
   8 3d3/2 4  6.38000E+02  5.60000E-01  5.15535E-02
   9 3d5/2 6  6.26000E+02  5.60000E-01  5.21322E-02
  10 4s1/2 2  1.93000E+02  2.40000E+00  2.84747E-01
  11 4p1/2 2  1.41000E+02  2.59692E+01  1.83849E-01
  12 4p3/2 4  1.31000E+02  4.39832E+01  1.90029E-01
  13 4d3/2 4  5.80000E+01  1.10000E-01  1.59009E-01
  14 4d5/2 6  5.60000E+01  1.20000E-01  1.60998E-01
  17 5s1/2 2  2.06100E+01  0.00000E+00  8.52824E-01
  18 5p1/2 2  1.04500E+01  0.00000E+00  6.06219E-01
  19 5p3/2 3  1.04500E+01  0.00000E+00  6.36984E-01
   1  3  0  2.54309E-01  2.83175E+04
   1  4  0  4.72118E-01  2.86123E+04
   1  6  0  4.39088E-02  3.22397E+04
   1  7  0  8.51517E-02  3.22950E+04
   1  8  0  4.12249E-04  3.25388E+04
   1  9  0  5.65058E-04  3.25501E+04
   1 11  0  9.15607E-03  3.30185E+04
   1 12  0  1.79119E-02  3.30298E+04
   1 13  0  7.32237E-05  3.31040E+04
   1 14  0  1.00070E-04  3.31057E+04
   1 18  0  7.32127E-04  3.31532E+04
   1 19  0  1.37130E-03  3.31544E+04
   1  2  2  8.91673E-03  2.28402E+04
   1  2  3  1.06418E-02  2.31446E+04
   1  2  4  1.30507E-02  2.34476E+04
   1  2  5  3.17941E-03  2.69467E+04
   1  2  6  2.02890E-03  2.70749E+04
   1  2  7  2.51372E-03  2.71323E+04
   1  2  8  1.68000E-04  2.73606E+04
   1  2  9  1.83814E-04  2.73728E+04
   1  2 10  6.84137E-04  2.78111E+04
   1  2 11  4.10625E-04  2.78566E+04
   1  2 12  5.05507E-04  2.78679E+04
   1  2 13  3.01428E-05  2.79421E+04
   1  2 14  3.28600E-05  2.79438E+04
   1  2 17  1.01299E-04  2.79811E+04
   1  2 18  3.92840E-05  2.79913E+04
   1  2 19  4.69428E-05  2.79925E+04
   1  3  3  1.33390E-03  2.34490E+04
   1  3  4  2.82368E-02  2.37520E+04
   1  3  5  1.57310E-03  2.72511E+04
   1  3  6  4.55341E-04  2.73793E+04
   1  3  7  4.53287E-03  2.74367E+04
   1  3  8  2.03331E-04  2.76650E+04
   1  3  9  6.81651E-04  2.76772E+04
   1  3 10  3.25647E-04  2.81155E+04
   1  3 11  9.04264E-05  2.81610E+04
   1  3 12  8.81532E-04  2.81723E+04
   1  3 13  3.60726E-05  2.82465E+04
   1  3 14  1.20073E-04  2.82482E+04
   1  3 17  4.79310E-05  2.82855E+04
   1  3 18  8.64728E-06  2.82957E+04
   1  3 19  8.15323E-05  2.82969E+04
   1  4  4  1.41721E-02  2.40550E+04
   1  4  5  1.89061E-03  2.75541E+04
   1  4  6  4.42382E-03  2.76823E+04
   1  4  7  4.67357E-03  2.77397E+04
   1  4  8  8.13596E-04  2.79680E+04
   1  4  9  7.49837E-04  2.79802E+04
   1  4 10  3.89866E-04  2.84185E+04
   1  4 11  8.64481E-04  2.84640E+04
   1  4 12  9.14422E-04  2.84753E+04
   1  4 13  1.44039E-04  2.85495E+04
   1  4 14  1.32428E-04  2.85512E+04
   1  4 17  5.73198E-05  2.85885E+04
   1  4 18  8.22729E-05  2.85987E+04
   1  4 19  8.44971E-05  2.85999E+04
   1  5  5  2.79178E-04  3.10532E+04
   1  5  6  3.02645E-04  3.11814E+04
   1  5  7  3.67138E-04  3.12388E+04
   1  5  8  2.32233E-05  3.14671E+04
   1  5  9  2.44589E-05  3.14793E+04
   1  5 10  1.19826E-04  3.19176E+04
   1  5 11  6.12717E-05  3.19631E+04
   1  5 12  7.38715E-05  3.19744E+04
   1  5 13  4.20010E-06  3.20486E+04
   1  5 14  4.44713E-06  3.20503E+04
   1  5 17  1.77891E-05  3.20876E+04
   1  5 18  5.92953E-06  3.20978E+04
   1  5 19  6.91780E-06  3.20990E+04
   1  6  6  3.73070E-05  3.13096E+04
   1  6  7  7.22172E-04  3.13670E+04
   1  6  8  2.49538E-05  3.15953E+04
   1  6  9  8.32602E-05  3.16075E+04
   1  6 10  6.27548E-05  3.20458E+04
   1  6 11  1.48233E-05  3.20913E+04
   1  6 12  1.40835E-04  3.21026E+04
   1  6 13  4.44717E-06  3.21768E+04
   1  6 14  1.48233E-05  3.21785E+04
   1  6 17  9.14145E-06  3.22158E+04
   1  6 18  1.48233E-06  3.22260E+04
   1  6 19  1.30958E-05  3.22272E+04
   1  7  7  3.86652E-04  3.14244E+04
   1  7  8  1.05990E-04  3.16527E+04
   1  7  9  9.53676E-05  3.16649E+04
   1  7 10  7.58480E-05  3.21031E+04
   1  7 11  1.41567E-04  3.21487E+04
   1  7 12  1.51453E-04  3.21600E+04
   1  7 13  1.87766E-05  3.22341E+04
   1  7 14  1.67993E-05  3.22359E+04
   1  7 17  1.11182E-05  3.22732E+04
   1  7 18  1.33414E-05  3.22834E+04
   1  7 19  1.40832E-05  3.22846E+04
   1  8  9  1.21717E-05  3.18932E+04
   1  8 10  4.44716E-06  3.23315E+04
   1  8 11  4.44716E-06  3.23770E+04
   1  8 12  1.87255E-05  3.23883E+04
   1  8 14  2.10657E-06  3.24643E+04
   1  8 17  7.02186E-07  3.25015E+04
   1  8 18  4.68127E-07  3.25118E+04
   1  8 19  1.63843E-06  3.25129E+04
   1  9  9  2.86227E-06  3.19054E+04
   1  9 10  4.77035E-06  3.23436E+04
   1  9 11  1.50265E-05  3.23892E+04
   1  9 12  1.71738E-05  3.24005E+04
   1  9 13  2.14665E-06  3.24746E+04
   1  9 14  9.54089E-07  3.24764E+04
   1  9 17  7.15548E-07  3.25137E+04
   1  9 18  1.43105E-06  3.25239E+04
   1  9 19  1.66961E-06  3.25251E+04
   1 10 10  1.24217E-05  3.27819E+04
   1 10 11  1.24217E-05  3.28274E+04
   1 10 12  1.48109E-05  3.28388E+04
   1 10 13  7.16603E-07  3.29129E+04
   1 10 14  9.55497E-07  3.29147E+04
   1 10 17  3.58307E-06  3.29519E+04
   1 10 18  1.19432E-06  3.29622E+04
   1 10 19  1.43316E-06  3.29633E+04
   1 11 11  1.37022E-06  3.28729E+04
   1 11 12  2.55791E-05  3.28843E+04
   1 11 13  6.85131E-07  3.29584E+04
   1 11 14  2.51218E-06  3.29602E+04
   1 11 17  1.82706E-06  3.29975E+04
   1 11 18  2.28382E-07  3.30077E+04
   1 11 19  2.28382E-06  3.30088E+04
   1 12 12  1.38134E-05  3.28956E+04
   1 12 13  3.22323E-06  3.29698E+04
   1 12 14  2.99304E-06  3.29715E+04
   1 12 17  2.07209E-06  3.30088E+04
   1 12 18  2.53257E-06  3.30190E+04
   1 12 19  2.53257E-06  3.30202E+04
   1 13 14  4.94134E-07  3.30457E+04
   1 13 17  2.47071E-07  3.30829E+04
   1 13 19  2.47071E-07  3.30943E+04
   1 14 17  2.47072E-07  3.30847E+04
   1 14 18  2.47072E-07  3.30950E+04
   1 14 19  2.47072E-07  3.30961E+04
   1 17 17  2.47072E-07  3.31220E+04
   1 17 18  2.47072E-07  3.31322E+04
   1 17 19  2.47072E-07  3.31334E+04
   1 18 19  2.47069E-07  3.31436E+04
   2  3  0  1.99879E-05  3.04400E+02
   2  4  0  3.45078E-04  6.07400E+02
   2  6  0  1.31549E-02  4.25753E+03
   2  7  0  2.08889E-02  4.31349E+03
   2  8  0  1.88269E-04  4.55643E+03
   2  9  0  2.81209E-04  4.56906E+03
   2 11  0  2.77369E-03  5.01637E+03
   2 12  0  4.51118E-03  5.02769E+03
   2 13  0  2.20399E-05  5.10186E+03
   2 14  0  3.34348E-05  5.10364E+03
   2 18  0  2.41689E-04  5.15113E+03
   2 19  0  3.77128E-04  5.15227E+03
   2  3 10  5.64269E-02  1.13360E+02
   2  3 11  4.07635E-02  1.58870E+02
   2  3 12  5.25610E-02  1.70190E+02
   2  3 13  1.29922E-02  2.44360E+02
   2  3 14  2.08579E-02  2.46140E+02
   2  3 17  8.11508E-03  2.83390E+02
   2  3 18  3.69136E-03  2.93630E+02
   2  3 19  4.63100E-03  2.94770E+02
   2  4 10  7.43152E-02  4.16360E+02
   2  4 11  3.29765E-02  4.61870E+02
   2  4 12  6.23732E-02  4.73190E+02
   2  4 13  5.93997E-02  5.47360E+02
   2  4 14  7.62633E-02  5.49140E+02
   2  4 17  1.06434E-02  5.86390E+02
   2  4 18  3.03892E-03  5.96630E+02
   2  4 19  5.64832E-03  5.97770E+02
   2  5  5  1.33311E-02  3.05110E+03
   2  5  6  2.65331E-02  3.17930E+03
   2  5  7  4.91513E-02  3.23669E+03
   2  5  8  3.94319E-02  3.46504E+03
   2  5  9  5.58364E-02  3.47719E+03
   2  5 10  4.90313E-03  3.91546E+03
   2  5 11  5.26610E-03  3.96097E+03
   2  5 12  9.67521E-03  3.97229E+03
   2  5 13  6.06316E-03  4.04646E+03
   2  5 14  8.53470E-03  4.04824E+03
   2  5 17  7.11215E-04  4.08549E+03
   2  5 18  5.02958E-04  4.09573E+03
   2  5 19  8.98620E-04  4.09687E+03
   2  6  6  1.48177E-04  3.30750E+03
   2  6  7  1.05168E-03  3.36489E+03
   2  6  8  1.12451E-03  3.59324E+03
   2  6  9  1.45656E-02  3.60539E+03
   2  6 10  3.91878E-03  4.04366E+03
   2  6 11  3.04348E-05  4.08917E+03
   2  6 12  1.95419E-04  4.10049E+03
   2  6 13  1.77001E-04  4.17466E+03
   2  6 14  1.48728E-03  4.17644E+03
   2  6 17  5.43017E-04  4.21369E+03
   2  6 18  2.40269E-06  4.22393E+03
   2  6 19  1.76199E-05  4.22507E+03
   2  7  7  1.13975E-03  3.42228E+03
   2  7  8  1.02699E-02  3.65063E+03
   2  7  9  6.99365E-03  3.66278E+03
   2  7 10  7.25887E-03  4.10105E+03
   2  7 11  1.95424E-04  4.14656E+03
   2  7 12  3.42794E-04  4.15788E+03
   2  7 13  9.13857E-04  4.23205E+03
   2  7 14  6.51971E-04  4.23383E+03
   2  7 17  1.00678E-03  4.27108E+03
   2  7 18  1.84218E-05  4.28132E+03
   2  7 19  3.04355E-05  4.28246E+03
   2  8  8  2.23147E-03  3.87898E+03
   2  8  9  8.04566E-02  3.89113E+03
   2  8 10  5.52494E-03  4.32940E+03
   2  8 11  2.89938E-04  4.37491E+03
   2  8 12  2.03917E-03  4.38623E+03
   2  8 13  6.80006E-04  4.46040E+03
   2  8 14  9.05944E-03  4.46218E+03
   2  8 17  7.60095E-04  4.49943E+03
   2  8 18  2.88337E-05  4.50967E+03
   2  8 19  1.89020E-04  4.51081E+03
   2  9  9  2.26910E-02  3.90328E+03
   2  9 10  7.86852E-03  4.34155E+03
   2  9 11  2.63828E-03  4.38706E+03
   2  9 12  1.45850E-03  4.39838E+03
   2  9 13  8.97605E-03  4.47255E+03
   2  9 14  5.34479E-03  4.47433E+03
   2  9 17  1.08442E-03  4.51158E+03
   2  9 18  2.48290E-04  4.52182E+03
   2  9 19  1.36957E-04  4.52296E+03
   2 10 10  4.28507E-04  4.77982E+03
   2 10 11  7.79317E-04  4.82533E+03
   2 10 12  1.43049E-03  4.83665E+03
   2 10 13  8.46599E-04  4.91082E+03
   2 10 14  1.19657E-03  4.91260E+03
   2 10 17  1.23350E-04  4.94985E+03
   2 10 18  7.44880E-05  4.96009E+03
   2 10 19  1.32954E-04  4.96123E+03
   2 11 11  1.60184E-06  4.87084E+03
   2 11 12  3.68419E-05  4.88216E+03
   2 11 13  3.84437E-05  4.95633E+03
   2 11 14  2.77917E-04  4.95811E+03
   2 11 17  1.08119E-04  4.99536E+03
   2 11 19  3.20367E-06  5.00674E+03
   2 12 12  2.52665E-05  4.89348E+03
   2 12 13  1.89493E-04  4.96765E+03
   2 12 14  1.39746E-04  4.96943E+03
   2 12 17  1.95816E-04  5.00668E+03
   2 12 18  3.15826E-06  5.01692E+03
   2 12 19  4.73730E-06  5.01806E+03
   2 13 13  4.79689E-05  5.04182E+03
   2 13 14  1.05927E-03  5.04360E+03
   2 13 17  1.14022E-04  5.08085E+03
   2 13 18  3.93172E-06  5.09109E+03
   2 13 19  1.72996E-05  5.09223E+03
   2 14 14  3.26309E-04  5.04538E+03
   2 14 17  1.62377E-04  5.08263E+03
   2 14 18  2.60106E-05  5.09287E+03
   2 14 19  1.34001E-05  5.09401E+03
   2 17 17  6.78771E-06  5.11988E+03
   2 17 18  8.02247E-06  5.13012E+03
   2 17 19  1.41927E-05  5.13126E+03
   3  4  0  5.67999E-08  3.03000E+02
   3  5  0  3.92489E-03  3.78019E+03
   3  7  0  5.50079E-05  3.97750E+03
   3  8  0  7.02248E-02  4.22076E+03
   3 10  0  5.40509E-04  4.66646E+03
   3 12  0  6.31929E-06  4.72329E+03
   3 13  0  1.00360E-02  4.79746E+03
   3 17  0  6.10559E-05  4.83649E+03
   3 19  0  5.28549E-07  4.84787E+03
   3  4 10  1.14294E-02  1.11960E+02
   3  4 11  5.04681E-02  1.57470E+02
   3  4 12  1.76294E-02  1.68790E+02
   3  4 13  6.42816E-02  2.42960E+02
   3  4 14  2.38704E-02  2.44740E+02
   3  4 17  1.53723E-03  2.81990E+02
   3  4 18  4.57738E-03  2.92230E+02
   3  4 19  1.62607E-03  2.93370E+02
   3  5  5  1.02794E-03  2.74670E+03
   3  5  6  2.48945E-02  2.87490E+03
   3  5  7  2.43523E-03  2.93229E+03
   3  5  8  1.83807E-03  3.16064E+03
   3  5  9  3.52278E-03  3.17279E+03
   3  5 10  3.51358E-04  3.61106E+03
   3  5 11  3.40613E-03  3.65657E+03
   3  5 12  4.26120E-04  3.66789E+03
   3  5 13  2.08388E-04  3.74206E+03
   3  5 14  3.41084E-04  3.74384E+03
   3  5 17  5.04623E-05  3.78109E+03
   3  5 18  3.06500E-04  3.79133E+03
   3  5 19  3.83112E-05  3.79247E+03
   3  6  6  2.45287E-02  3.00310E+03
   3  6  7  7.69105E-02  3.06049E+03
   3  6  8  4.18445E-02  3.28884E+03
   3  6  9  7.14703E-02  3.30099E+03
   3  6 10  5.46847E-03  3.73926E+03
   3  6 11  8.35310E-03  3.78477E+03
   3  6 12  1.48648E-02  3.79609E+03
   3  6 13  6.41213E-03  3.87026E+03
   3  6 14  1.09464E-02  3.87204E+03
   3  6 17  8.12951E-04  3.90929E+03
   3  6 18  7.81188E-04  3.91953E+03
   3  6 19  1.37634E-03  3.92067E+03
   3  7  7  2.02405E-03  3.11788E+03
   3  7  8  5.02422E-02  3.34623E+03
   3  7  9  6.76265E-03  3.35838E+03
   3  7 10  4.59773E-04  3.79665E+03
   3  7 11  1.09056E-02  3.84216E+03
   3  7 12  6.60668E-04  3.85348E+03
   3  7 13  6.62249E-03  3.92765E+03
   3  7 14  8.34471E-04  3.92943E+03
   3  7 17  6.63489E-05  3.96668E+03
   3  7 18  9.87766E-04  3.97692E+03
   3  7 19  5.98061E-05  3.97806E+03
   3  8  8  4.58917E-02  3.57458E+03
   3  8  9  1.96844E-01  3.58673E+03
   3  8 10  4.09295E-04  4.02500E+03
   3  8 11  5.94594E-03  4.07051E+03
   3  8 12  9.17743E-03  4.08183E+03
   3  8 13  1.20861E-02  4.15600E+03
   3  8 14  2.76909E-02  4.15778E+03
   3  8 17  6.07410E-05  4.19503E+03
   3  8 18  5.41062E-04  4.20527E+03
   3  8 19  8.41970E-04  4.20641E+03
   3  9  9  9.37876E-03  3.59888E+03
   3  9 10  6.49444E-04  4.03715E+03
   3  9 11  9.04942E-03  4.08266E+03
   3  9 12  1.13067E-03  4.09398E+03
   3  9 13  2.20603E-02  4.16815E+03
   3  9 14  2.40632E-03  4.16993E+03
   3  9 17  9.34485E-05  4.20718E+03
   3  9 18  8.03639E-04  4.21742E+03
   3  9 19  1.01863E-04  4.21856E+03
   3 10 10  3.15393E-05  4.47542E+03
   3 10 11  8.17978E-04  4.52093E+03
   3 10 12  8.74965E-05  4.53225E+03
   3 10 13  4.88349E-05  4.60642E+03
   3 10 14  7.01987E-05  4.60820E+03
   3 10 17  9.15680E-06  4.64545E+03
   3 10 18  7.32540E-05  4.65569E+03
   3 10 19  8.13937E-06  4.65683E+03
   3 11 11  6.40191E-04  4.56644E+03
   3 11 12  1.98201E-03  4.57776E+03
   3 11 13  8.43026E-04  4.65193E+03
   3 11 14  1.31112E-03  4.65371E+03
   3 11 17  1.05380E-04  4.69096E+03
   3 11 18  1.19426E-04  4.70120E+03
   3 11 19  1.83535E-04  4.70234E+03
   3 12 12  5.19761E-05  4.58908E+03
   3 12 13  1.16949E-03  4.66325E+03
   3 12 14  1.37106E-04  4.66503E+03
   3 12 17  1.16499E-05  4.70228E+03
   3 12 18  1.82812E-04  4.71252E+03
   3 12 19  9.85780E-06  4.71366E+03
   3 13 13  7.72474E-04  4.73742E+03
   3 13 14  3.13948E-03  4.73920E+03
   3 13 17  6.42197E-06  4.77645E+03
   3 13 18  7.98159E-05  4.78669E+03
   3 13 19  1.10093E-04  4.78783E+03
   3 14 14  1.49357E-04  4.74098E+03
   3 14 17  8.99792E-06  4.77823E+03
   3 14 18  1.19668E-04  4.78847E+03
   3 14 19  1.25968E-05  4.78961E+03
   3 17 17  7.81687E-07  4.81548E+03
   3 17 18  8.59860E-06  4.82572E+03
   3 17 19  7.81687E-07  4.82686E+03
   3 18 18  5.67346E-06  4.83596E+03
   3 18 19  1.70205E-05  4.83710E+03
   4  5  0  7.05937E-03  3.48506E+03
   4  6  0  3.82208E-05  3.62730E+03
   4  7  0  3.56368E-05  3.68320E+03
   4  8  0  6.98697E-03  3.92609E+03
   4  9  0  6.19427E-02  3.93770E+03
   4 10  0  5.96297E-04  4.36346E+03
   4 11  0  3.11799E-06  4.40897E+03
   4 12  0  2.99079E-06  4.42029E+03
   4 13  0  9.74006E-04  4.49446E+03
   4 14  0  8.67596E-03  4.49624E+03
   4 17  0  7.92526E-05  4.53349E+03
   4 18  0  2.70649E-07  4.54373E+03
   4 19  0  2.49149E-07  4.54487E+03
   4  5  5  1.35310E-03  2.44370E+03
   4  5  6  9.72469E-04  2.57190E+03
   4  5  7  2.88831E-02  2.62929E+03
   4  5  8  2.87269E-03  2.85764E+03
   4  5  9  3.08991E-03  2.86979E+03
   4  5 10  4.63882E-04  3.30806E+03
   4  5 11  1.60377E-04  3.35357E+03
   4  5 12  3.94770E-03  3.36489E+03
   4  5 13  2.42613E-04  3.43906E+03
   4  5 14  2.41591E-04  3.44084E+03
   4  5 17  6.59816E-05  3.47809E+03
   4  5 18  1.52269E-05  3.48833E+03
   4  5 19  3.46150E-04  3.48947E+03
   4  6  6  3.21783E-04  2.70010E+03
   4  6  7  4.81238E-02  2.75749E+03
   4  6  8  3.27369E-03  2.98584E+03
   4  6  9  2.92012E-02  2.99799E+03
   4  6 10  1.79665E-04  3.43626E+03
   4  6 11  1.06581E-04  3.48177E+03
   4  6 12  6.81035E-03  3.49309E+03
   4  6 13  4.67954E-04  3.56726E+03
   4  6 14  3.63807E-03  3.56904E+03
   4  6 17  2.63923E-05  3.60629E+03
   4  6 18  1.01505E-05  3.61653E+03
   4  6 19  6.00942E-04  3.61767E+03
   4  7  7  6.77243E-02  2.81488E+03
   4  7  8  6.91858E-02  3.04323E+03
   4  7  9  1.04721E-01  3.05538E+03
   4  7 10  6.27961E-03  3.49365E+03
   4  7 11  9.17734E-03  3.53916E+03
   4  7 12  2.26488E-02  3.55048E+03
   4  7 13  1.02358E-02  3.62465E+03
   4  7 14  1.52771E-02  3.62643E+03
   4  7 17  9.32901E-04  3.66368E+03
   4  7 18  8.70966E-04  3.67392E+03
   4  7 19  2.05556E-03  3.67506E+03
   4  8  8  1.01182E-02  3.27158E+03
   4  8  9  1.94016E-01  3.28373E+03
   4  8 10  5.81636E-04  3.72200E+03
   4  8 11  6.20206E-04  3.76751E+03
   4  8 12  9.15953E-03  3.77883E+03
   4  8 13  2.66959E-03  3.85300E+03
   4  8 14  2.20602E-02  3.85478E+03
   4  8 17  8.52661E-05  3.89203E+03
   4  8 18  5.88734E-05  3.90227E+03
   4  8 19  7.99866E-04  3.90341E+03
   4  9  9  1.31777E-01  3.29588E+03
   4  9 10  6.66903E-04  3.73415E+03
   4  9 11  5.19620E-03  3.77966E+03
   4  9 12  1.54901E-02  3.79098E+03
   4  9 13  2.58880E-02  3.86515E+03
   4  9 14  3.33216E-02  3.86693E+03
   4  9 17  9.94772E-05  3.90418E+03
   4  9 18  4.88247E-04  3.91442E+03
   4  9 19  1.38153E-03  3.91556E+03
   4 10 10  4.38749E-05  4.17242E+03
   4 10 11  3.37502E-05  4.21793E+03
   4 10 12  9.54016E-04  4.22925E+03
   4 10 13  5.73734E-05  4.30342E+03
   4 10 14  6.18766E-05  4.30520E+03
   4 10 17  1.23758E-05  4.34245E+03
   4 10 18  3.37502E-06  4.35269E+03
   4 10 19  8.32521E-05  4.35383E+03
   4 11 11  7.64967E-06  4.26344E+03
   4 11 12  1.22101E-03  4.27476E+03
   4 11 13  8.22317E-05  4.34893E+03
   4 11 14  6.26306E-04  4.35071E+03
   4 11 17  3.82459E-06  4.38796E+03
   4 11 18  1.91230E-06  4.39820E+03
   4 11 19  1.08052E-04  4.39934E+03
   4 12 12  1.69339E-03  4.28608E+03
   4 12 13  1.25370E-03  4.36025E+03
   4 12 14  2.06291E-03  4.36203E+03
   4 12 17  1.18138E-04  4.39928E+03
   4 12 18  1.13452E-04  4.40952E+03
   4 12 19  3.05677E-04  4.41066E+03
   4 13 13  1.68437E-04  4.43442E+03
   4 13 14  2.97019E-03  4.43620E+03
   4 13 17  7.97368E-06  4.47345E+03
   4 13 18  7.97368E-06  4.48369E+03
   4 13 19  1.16611E-04  4.48483E+03
   4 14 14  2.16663E-03  4.43798E+03
   4 14 17  8.31765E-06  4.47523E+03
   4 14 18  6.44609E-05  4.48547E+03
   4 14 19  2.03776E-04  4.48661E+03
   4 17 17  1.37812E-06  4.51248E+03
   4 17 19  1.51608E-05  4.52386E+03
   4 18 19  1.00580E-05  4.53410E+03
   4 19 19  1.38529E-05  4.53524E+03
   5  6  0  1.18601E-05  1.28200E+02
   5  7  0  7.47920E-05  1.85590E+02
   5 11  0  1.97547E-04  9.09870E+02
   5 12  0  2.70957E-04  9.21190E+02
   5 18  0  1.88593E-05  1.04463E+03
   5 19  0  2.53822E-05  1.04577E+03
   5  6 13  7.21454E-02  6.81600E+01
   5  6 14  9.87565E-02  6.99400E+01
   5  6 17  6.97089E-03  1.07190E+02
   5  6 18  4.00405E-03  1.17430E+02
   5  6 19  6.73592E-03  1.18570E+02
   5  7 12  1.25568E-01  5.13800E+01
   5  7 13  5.59498E-02  1.25550E+02
   5  7 14  8.17873E-02  1.27330E+02
   5  7 17  9.77695E-03  1.64580E+02
   5  7 18  5.87052E-03  1.74820E+02
   5  7 19  8.86628E-03  1.75960E+02
   5  8 10  2.97374E-02  2.22900E+02
   5  8 11  6.21784E-03  2.68410E+02
   5  8 12  4.84196E-03  2.79730E+02
   5  8 13  7.57530E-03  3.53900E+02
   5  8 14  9.23990E-03  3.55680E+02
   5  8 17  2.81470E-03  3.92930E+02
   5  8 18  3.95867E-04  4.03170E+02
   5  8 19  2.87454E-04  4.04310E+02
   5  9 10  4.34890E-02  2.35050E+02
   5  9 11  1.57592E-03  2.80560E+02
   5  9 12  1.22044E-02  2.91880E+02
   5  9 13  9.74457E-03  3.66050E+02
   5  9 14  1.53719E-02  3.67830E+02
   5  9 17  4.09733E-03  4.05080E+02
   5  9 18  9.31129E-05  4.15320E+02
   5  9 19  7.30187E-04  4.16460E+02
   5 10 10  8.91742E-03  6.73320E+02
   5 10 11  1.42686E-02  7.18830E+02
   5 10 12  2.62932E-02  7.30150E+02
   5 10 13  2.50743E-02  8.04320E+02
   5 10 14  3.65247E-02  8.06100E+02
   5 10 17  2.00069E-03  8.43350E+02
   5 10 18  1.10321E-03  8.53590E+02
   5 10 19  1.93309E-03  8.54730E+02
   5 11 11  8.08363E-04  7.64340E+02
   5 11 12  1.96665E-03  7.75660E+02
   5 11 13  1.13927E-03  8.49830E+02
   5 11 14  4.03279E-04  8.51610E+02
   5 11 17  1.30116E-03  8.88860E+02
   5 11 18  1.04886E-04  8.99100E+02
   5 11 19  1.17549E-04  9.00240E+02
   5 12 12  2.52973E-03  7.86980E+02
   5 12 13  1.03586E-03  8.61150E+02
   5 12 14  2.93661E-03  8.62930E+02
   5 12 17  2.31112E-03  9.00180E+02
   5 12 18  1.24927E-04  9.10420E+02
   5 12 19  3.19269E-04  9.11560E+02
   5 13 13  3.09033E-04  9.35320E+02
   5 13 14  1.04405E-03  9.37100E+02
   5 13 17  2.18502E-03  9.74350E+02
   5 13 18  6.63444E-05  9.84590E+02
   5 13 19  6.11040E-05  9.85730E+02
   5 14 14  7.18936E-04  9.38880E+02
   5 14 17  3.19586E-03  9.76130E+02
   5 14 18  2.19197E-05  9.86370E+02
   5 14 19  1.77114E-04  9.87510E+02
   5 17 17  8.83153E-05  1.01338E+03
   5 17 18  8.30781E-05  1.02362E+03
   5 17 19  1.46693E-04  1.02476E+03
   5 18 18  1.46804E-06  1.03386E+03
   5 18 19  3.91473E-06  1.03500E+03
   5 19 19  6.68222E-06  1.03614E+03
   6  8  0  4.15773E-04  2.85740E+02
   6 10  0  2.76166E-04  7.36160E+02
   6 13  0  9.85329E-04  8.67160E+02
   6 17  0  3.97036E-05  9.06190E+02
   6  8 10  1.25747E-01  9.47000E+01
   6  8 11  1.27274E-01  1.40210E+02
   6  8 12  1.87741E-01  1.51530E+02
   6  8 13  5.08484E-02  2.25700E+02
   6  8 14  5.39554E-02  2.27480E+02
   6  8 17  1.69842E-02  2.64730E+02
   6  8 18  8.72453E-03  2.74970E+02
   6  8 19  1.33358E-02  2.76110E+02
   6  9 10  2.15085E-02  1.06850E+02
   6  9 11  1.55248E-01  1.52360E+02
   6  9 12  1.62976E-02  1.63680E+02
   6  9 13  3.48616E-03  2.37850E+02
   6  9 14  6.74609E-03  2.39630E+02
   6  9 17  1.98399E-03  2.76880E+02
   6  9 18  9.00224E-03  2.87120E+02
   6  9 19  1.06042E-03  2.88260E+02
   6 10 10  7.22799E-04  5.45120E+02
   6 10 11  1.02704E-02  5.90630E+02
   6 10 12  1.67678E-03  6.01950E+02
   6 10 13  3.68727E-04  6.76120E+02
   6 10 14  1.04761E-03  6.77900E+02
   6 10 17  1.54751E-04  7.15150E+02
   6 10 18  5.69328E-04  7.25390E+02
   6 10 19  1.12084E-04  7.26530E+02
   6 11 11  7.20080E-03  6.36140E+02
   6 11 12  2.25110E-02  6.47460E+02
   6 11 13  1.87645E-02  7.21630E+02
   6 11 14  3.12219E-02  7.23410E+02
   6 11 17  1.36490E-03  7.60660E+02
   6 11 18  9.68283E-04  7.70900E+02
   6 11 19  1.65081E-03  7.72040E+02
   6 12 12  6.40000E-04  6.58780E+02
   6 12 13  1.99098E-03  7.32950E+02
   6 12 14  1.43155E-03  7.34730E+02
   6 12 17  1.66429E-04  7.71980E+02
   6 12 18  1.35304E-03  7.82220E+02
   6 12 19  8.05093E-05  7.83360E+02
   6 13 13  6.48047E-04  8.07120E+02
   6 13 14  1.58030E-03  8.08900E+02
   6 13 17  4.43611E-05  8.46150E+02
   6 13 18  1.05053E-03  8.56390E+02
   6 13 19  1.17653E-04  8.57530E+02
   6 14 14  1.98305E-04  8.10680E+02
   6 14 17  5.47166E-05  8.47930E+02
   6 14 18  9.12919E-04  8.58170E+02
   6 14 19  4.11193E-05  8.59310E+02
   6 17 17  6.90180E-06  8.85180E+02
   6 17 18  6.31782E-05  8.95420E+02
   6 17 19  9.02539E-06  8.96560E+02
   6 18 18  1.58996E-05  9.05660E+02
   6 18 19  5.95230E-05  9.06800E+02
   6 19 19  1.64415E-06  9.07940E+02
   7  8  0  2.30088E-05  2.28350E+02
   7  9  0  2.47498E-04  2.40500E+02
   7 10  0  3.48651E-04  6.78770E+02
   7 13  0  1.23532E-04  8.09770E+02
   7 14  0  1.01966E-03  8.11550E+02
   7 17  0  4.96183E-05  8.48800E+02
   7  8 11  1.84223E-02  8.28200E+01
   7  8 12  1.09499E-01  9.41400E+01
   7  8 13  1.28571E-02  1.68310E+02
   7  8 14  9.29526E-03  1.70090E+02
   7  8 17  2.82867E-03  2.07340E+02
   7  8 18  1.33788E-03  2.17580E+02
   7  8 19  6.43915E-03  2.18720E+02
   7  9 11  1.22344E-01  9.49700E+01
   7  9 12  2.42638E-01  1.06290E+02
   7  9 13  4.93172E-02  1.80460E+02
   7  9 14  8.31954E-02  1.82240E+02
   7  9 17  1.59281E-02  2.19490E+02
   7  9 18  8.98459E-03  2.29730E+02
   7  9 19  1.58222E-02  2.30870E+02
   7 10 10  8.22802E-04  4.87730E+02
   7 10 11  1.20087E-03  5.33240E+02
   7 10 12  1.73790E-02  5.44560E+02
   7 10 13  9.92989E-04  6.18730E+02
   7 10 14  1.08966E-03  6.20510E+02
   7 10 17  1.75972E-04  6.57760E+02
   7 10 18  7.92863E-05  6.68000E+02
   7 10 19  9.32086E-04  6.69140E+02
   7 11 11  1.94470E-04  5.78750E+02
   7 11 12  1.91102E-02  5.90070E+02
   7 11 13  5.24337E-04  6.64240E+02
   7 11 14  2.94110E-03  6.66020E+02
   7 11 17  1.14399E-04  7.03270E+02
   7 11 18  2.47855E-05  7.13510E+02
   7 11 19  1.03628E-03  7.14650E+02
   7 12 12  2.45950E-02  6.01390E+02
   7 12 13  2.99649E-02  6.75560E+02
   7 12 14  4.07859E-02  6.77340E+02
   7 12 17  1.96564E-03  7.14590E+02
   7 12 18  1.28897E-03  7.24830E+02
   7 12 19  3.13905E-03  7.25970E+02
   7 13 13  1.67204E-04  7.49730E+02
   7 13 14  1.82249E-03  7.51510E+02
   7 13 17  5.73792E-05  7.88760E+02
   7 13 18  1.85092E-05  7.99000E+02
   7 13 19  1.19078E-03  8.00140E+02
   7 14 14  9.36502E-04  7.53290E+02
   7 14 17  5.55383E-05  7.90540E+02
   7 14 18  8.66187E-05  8.00780E+02
   7 14 19  1.33039E-03  8.01920E+02
   7 17 17  5.15076E-06  8.27790E+02
   7 17 18  4.12067E-06  8.38030E+02
   7 17 19  6.43829E-05  8.39170E+02
   7 18 18  5.15077E-07  8.48270E+02
   7 18 19  4.27514E-05  8.49410E+02
   7 19 19  5.56282E-05  8.50550E+02
   8 11  0  1.54270E-03  4.95930E+02
   8 12  0  2.46300E-04  5.07250E+02
   8 18  0  1.28520E-04  6.30690E+02
   8 19  0  1.96650E-05  6.31830E+02
   8 10 10  6.84787E-05  2.59380E+02
   8 10 11  6.38803E-03  3.04890E+02
   8 10 12  5.33157E-03  3.16210E+02
   8 10 13  1.15812E-01  3.90380E+02
   8 10 14  1.68894E-02  3.92160E+02
   8 10 17  2.93474E-05  4.29410E+02
   8 10 18  3.91313E-04  4.39650E+02
   8 10 19  2.39662E-04  4.40790E+02
   8 11 11  1.80983E-03  3.50400E+02
   8 11 12  1.79904E-02  3.61720E+02
   8 11 13  9.12801E-02  4.35890E+02
   8 11 14  8.04146E-03  4.37670E+02
   8 11 17  4.05992E-04  4.74920E+02
   8 11 18  2.49455E-04  4.85160E+02
