 PENELOPE (v. 2018)  Material data file ...............
 Material: TISSUE, SOFT (ICRP)  (262)                                    
 Mass density = 1.00000000E+00 g/cm**3
 Number of elements in the molecule = 13
   atomic number =  1,  atoms/molecule = 6.30465000E-01
   atomic number =  6,  atoms/molecule = 1.17582000E-01
   atomic number =  7,  atoms/molecule = 1.08042000E-02
   atomic number =  8,  atoms/molecule = 2.39596000E-01
   atomic number = 11,  atoms/molecule = 2.98966000E-04
   atomic number = 12,  atoms/molecule = 3.25332000E-05
   atomic number = 15,  atoms/molecule = 2.61178000E-04
   atomic number = 16,  atoms/molecule = 3.77544000E-04
   atomic number = 17,  atoms/molecule = 2.29895000E-04
   atomic number = 19,  atoms/molecule = 3.09581000E-04
   atomic number = 20,  atoms/molecule = 3.49043000E-05
   atomic number = 26,  atoms/molecule = 5.44564000E-06
   atomic number = 30,  atoms/molecule = 2.79097000E-06
 Mean excitation energy = 7.23000000E+01 eV
 Number of oscillators = 42 (E/P inelastic model)
   1  6.78355600E-04  4.87504985E+00  1.04572925E+01   0  30
   2  2.12037803E+00  1.37697158E+01  3.02736575E+01   0  30
   3  4.81814384E-01  2.85112911E+01  6.18904985E+01   0  30
   4  8.95613640E-04  6.15946442E+01  1.32100914E+02   0  30
   5  1.11638800E-05  9.10000000E+01  1.96434726E+02  30   7
   6  6.50664000E-05  9.20000000E+01  1.98593362E+02  12   2
   7  5.58194000E-06  9.40000000E+01  2.02910595E+02  30   6
   8  1.08912800E-05  9.80000000E+01  2.11545089E+02  26   5
   9  1.04471200E-03  1.34000000E+02  2.89255691E+02  15   4
  10  5.22356000E-04  1.35000000E+02  2.91414232E+02  15   3
  11  5.58194000E-06  1.41000000E+02  3.04365891E+02  30   5
  12  1.51017600E-03  1.68000000E+02  3.62648910E+02  16   4
  13  7.55088000E-04  1.70000000E+02  3.66966061E+02  16   3
  14  5.22356000E-04  1.91000000E+02  4.12297115E+02  15   2
  15  9.19580000E-04  2.06000000E+02  4.44676501E+02  17   4
  16  4.59790000E-04  2.08000000E+02  4.48993700E+02  17   3
  17  7.55088000E-04  2.32000000E+02  5.00800682E+02  16   2
  18  4.59790000E-04  2.77000000E+02  5.97938699E+02  17   2
  19  2.35164000E-01  2.88000000E+02  6.21700734E+02   6   1
  20  1.23832400E-03  2.96000000E+02  6.38952596E+02  19   4
  21  6.19162000E-04  2.99000000E+02  6.45428421E+02  19   3
  22  1.39617200E-04  3.49000000E+02  7.53359553E+02  20   4
  23  6.98086000E-05  3.53000000E+02  7.61994042E+02  20   3
  24  6.19162000E-04  3.81000000E+02  8.22435525E+02  19   2
  25  2.16084000E-02  4.03000000E+02  8.69926335E+02   7   1
  26  6.98086000E-05  4.41000000E+02  9.51952894E+02  20   2
  27  4.79192000E-01  5.38000000E+02  1.16135813E+03   8   1
  28  2.17825600E-05  7.13000000E+02  1.53909844E+03  26   4
  29  1.08912800E-05  7.26000000E+02  1.56716054E+03  26   3
  30  1.08912800E-05  8.51000000E+02  1.83698846E+03  26   2
  31  1.11638800E-05  1.02400000E+03  2.21043030E+03  30   4
  32  5.58194000E-06  1.04700000E+03  2.26007863E+03  30   3
  33  5.97932000E-04  1.07500000E+03  2.32052010E+03  11   1
  34  5.58194000E-06  1.19800000E+03  2.58603076E+03  30   2
  35  6.50664000E-05  1.30800000E+03  2.82347932E+03  12   1
  36  5.22356000E-04  2.14800000E+03  4.63672293E+03  15   1
  37  7.55088000E-04  2.47600000E+03  5.34475139E+03  16   1
  38  4.59790000E-04  2.82900000E+03  6.10674542E+03  17   1
  39  6.19162000E-04  3.61000000E+03  7.79263025E+03  19   1
  40  6.98086000E-05  4.04100000E+03  8.72299690E+03  20   1
  41  1.08912800E-05  7.11700000E+03  1.53629223E+04  26   1
  42  5.58194000E-06  9.66300000E+03  2.08587773E+04  30   1
 Number of shells = 43 (Compton IA model)
   1  6.78355600E-04  4.87504985E+00  2.22682833E+00   0  30
   2  1.14213460E-04  8.14013841E+00  1.17378348E+00   0  30
   3  2.09558305E+00  1.36932380E+01  5.67627547E-01   0  30
   4  5.06495148E-01  2.81106457E+01  5.80314878E-01   0  30
   5  8.95613640E-04  6.15946442E+01  3.49283870E-01   0  30
   6  1.11638800E-05  9.10000000E+01  1.85311000E-01  30   7
   7  6.50664000E-05  9.20000000E+01  3.41174000E-01  12   2
   8  5.58194000E-06  9.40000000E+01  1.82703000E-01  30   6
   9  1.08912800E-05  9.80000000E+01  3.51458000E-01  26   5
  10  1.04471200E-03  1.34000000E+02  1.34312000E-01  15   4
  11  5.22356000E-04  1.35000000E+02  1.33772000E-01  15   3
  12  5.58194000E-06  1.41000000E+02  2.95031000E-01  30   5
  13  1.51017600E-03  1.68000000E+02  1.22328000E-01  16   4
  14  7.55088000E-04  1.70000000E+02  1.21780000E-01  16   3
  15  5.22356000E-04  1.91000000E+02  2.49749000E-01  15   2
  16  9.19580000E-04  2.06000000E+02  1.12363000E-01  17   4
  17  4.59790000E-04  2.08000000E+02  1.11802000E-01  17   3
  18  7.55088000E-04  2.32000000E+02  2.29436000E-01  16   2
  19  4.59790000E-04  2.77000000E+02  2.12221000E-01  17   2
  20  2.35164000E-01  2.88000000E+02  1.53080000E-01   6   1
  21  1.23832400E-03  2.96000000E+02  9.64819000E-02  19   4
  22  6.19162000E-04  2.99000000E+02  9.58954000E-02  19   3
  23  1.39617200E-04  3.49000000E+02  9.01604000E-02  20   4
  24  6.98086000E-05  3.53000000E+02  8.95584000E-02  20   3
  25  6.19162000E-04  3.81000000E+02  1.84412000E-01  19   2
  26  2.16084000E-02  4.03000000E+02  1.30137000E-01   7   1
  27  6.98086000E-05  4.41000000E+02  1.72935000E-01  20   2
  28  4.79192000E-01  5.38000000E+02  1.13183000E-01   8   1
  29  2.17825600E-05  7.13000000E+02  6.49062000E-02  26   4
  30  1.08912800E-05  7.26000000E+02  6.41844000E-02  26   3
  31  1.08912800E-05  8.51000000E+02  1.25935000E-01  26   2
  32  1.11638800E-05  1.02400000E+03  5.47521000E-02  30   4
  33  5.58194000E-06  1.04700000E+03  5.39403000E-02  30   3
  34  5.97932000E-04  1.07500000E+03  8.13091000E-02  11   1
  35  5.58194000E-06  1.19800000E+03  1.06518000E-01  30   2
  36  6.50664000E-05  1.30800000E+03  7.42688000E-02  12   1
  37  5.22356000E-04  2.14800000E+03  5.88756000E-02  15   1
  38  7.55088000E-04  2.47600000E+03  5.50495000E-02  16   1
  39  4.59790000E-04  2.82900000E+03  5.16812000E-02  17   1
  40  6.19162000E-04  3.61000000E+03  4.60230000E-02  19   1
  41  6.98086000E-05  4.04100000E+03  4.36230000E-02  20   1
  42  1.08912800E-05  7.11700000E+03  3.31215000E-02  26   1
  43  5.58194000E-06  9.66300000E+03  2.84671000E-02  30   1
 *** RELAX:  Z =  1,  no. of shells =  1,  no. of transitions =    0
   1 1s1/2 1  1.36000E+01  0.00000E+00  8.48807E-01
 *** RELAX:  Z =  6,  no. of shells =  3,  no. of transitions =    8
   1 1s1/2 2  2.88000E+02  6.14394E-02  1.53080E-01
   2 2s1/2 2  1.65900E+01  0.00000E+00  8.03154E-01
   3 2p1/2 2  1.12600E+01  0.00000E+00  4.88373E-01
   1  3  0  5.61488E-04  2.77000E+02
   1  4  0  1.12060E-03  2.77000E+02
   1  2  2  4.13609E-01  2.55890E+02
   1  2  3  1.36190E-01  2.64460E+02
   1  2  4  2.71099E-01  2.64470E+02
   1  3  3  4.20748E-03  2.73030E+02
   1  3  4  1.10012E-01  2.73040E+02
   1  4  4  6.32008E-02  2.73050E+02
 *** RELAX:  Z =  7,  no. of shells =  4,  no. of transitions =    8
   1 1s1/2 2  4.03000E+02  9.27355E-02  1.30137E-01
   2 2s1/2 2  2.03300E+01  0.00000E+00  6.71894E-01
   3 2p1/2 2  1.45300E+01  0.00000E+00  4.06903E-01
   4 2p3/2 1  1.45300E+01  0.00000E+00  4.07257E-01
   1  3  0  1.09420E-03  3.92400E+02
   1  4  0  2.18181E-03  3.92400E+02
   1  2  2  2.65388E-01  3.58650E+02
   1  2  3  1.29999E-01  3.70250E+02
   1  2  4  2.58276E-01  3.70270E+02
   1  3  3  8.15943E-03  3.81850E+02
   1  3  4  2.12711E-01  3.81870E+02
   1  4  4  1.22190E-01  3.81890E+02
 *** RELAX:  Z =  8,  no. of shells =  4,  no. of transitions =    8
   1 1s1/2 2  5.38000E+02  1.33383E-01  1.13183E-01
   2 2s1/2 2  2.84800E+01  0.00000E+00  5.77977E-01
   3 2p1/2 2  1.36200E+01  0.00000E+00  3.49407E-01
   4 2p3/2 2  1.36200E+01  0.00000E+00  3.49884E-01
   1  3  0  1.90768E-03  5.24900E+02
   1  4  0  3.80027E-03  5.24900E+02
   1  2  2  1.78644E-01  4.78820E+02
   1  2  3  1.16224E-01  4.93860E+02
   1  2  4  2.30418E-01  4.93900E+02
   1  3  3  1.10822E-02  5.08900E+02
   1  3  4  2.91115E-01  5.08940E+02
   1  4  4  1.66809E-01  5.08980E+02
 *** RELAX:  Z = 11,  no. of shells =  5,  no. of transitions =   13
   1 1s1/2 2  1.07500E+03  2.80000E-01  8.13091E-02
   2 2s1/2 2  6.60000E+01  2.80000E-01  3.89372E-01
   3 2p1/2 2  3.40000E+01  2.00000E-02  2.24103E-01
   4 2p3/2 4  3.40000E+01  2.00000E-02  2.24717E-01
   5 3s1/2 1  5.13900E+00  0.00000E+00  2.06434E+00
   1  3  0  6.68996E-03  1.04100E+03
   1  4  0  1.32959E-02  1.07110E+03
   1  2  2  8.70552E-02  9.35040E+02
   1  2  3  8.90021E-02  9.63100E+02
   1  2  4  1.75052E-01  9.63300E+02
   1  2  5  5.73825E-03  9.94370E+02
   1  3  3  1.46296E-02  9.91160E+02
   1  3  4  3.82369E-01  9.91360E+02
   1  3  5  2.69932E-03  1.02243E+03
   1  4  4  2.18165E-01  9.91560E+02
   1  4  5  5.30407E-03  1.02263E+03
   2 30  0  1.16019E-04  2.81944E+01
   2 30 30  9.99884E-01  2.30430E+01
 *** RELAX:  Z = 12,  no. of shells =  5,  no. of transitions =   19
   1 1s1/2 2  1.30800E+03  3.30000E-01  7.42688E-02
   2 2s1/2 2  9.20000E+01  4.60000E-01  3.41174E-01
   3 2p1/2 2  5.40000E+01  3.00000E-02  1.91325E-01
   4 2p3/2 4  5.40000E+01  3.00000E-02  1.91891E-01
   5 3s1/2 2  7.64600E+00  0.00000E+00  1.58368E+00
   1  3  0  9.27327E-03  1.25344E+03
   1  4  0  1.84189E-02  1.25369E+03
   1  2  2  8.23145E-02  1.11558E+03
   1  2  3  8.60821E-02  1.14849E+03
   1  2  4  1.68838E-01  1.14880E+03
   1  2  5  1.26143E-02  1.19815E+03
   1  3  3  1.44975E-02  1.18140E+03
   1  3  4  3.75508E-01  1.18171E+03
   1  3  5  5.99323E-03  1.23106E+03
   1  4  4  2.14213E-01  1.18202E+03
   1  4  5  1.17657E-02  1.23137E+03
   1  5  5  4.81078E-04  1.28072E+03
   2  5  5  1.20110E-02  7.56800E+01
   2 30  0  1.78346E-04  3.31193E+01
   2 30 30  9.87810E-01  2.62261E+01
   3 30  0  3.41139E-06  4.96600E+01
   3 30 30  9.99997E-01  4.27700E+01
   4 30  0  3.17959E-06  4.93500E+01
   4 30 30  9.99997E-01  4.24600E+01
 *** RELAX:  Z = 15,  no. of shells =  7,  no. of transitions =   52
   1 1s1/2 2  2.14800E+03  4.70000E-01  5.88756E-02
   2 2s1/2 2  1.91000E+02  1.10000E+00  2.49749E-01
   3 2p1/2 2  1.35000E+02  7.00000E-02  1.33772E-01
   4 2p3/2 4  1.34000E+02  7.00000E-02  1.34312E-01
   5 3s1/2 2  1.61500E+01  0.00000E+00  8.94833E-01
   6 3p1/2 2  1.04900E+01  0.00000E+00  6.29989E-01
   7 3p3/2 1  1.04900E+01  0.00000E+00  6.32143E-01
   1  3  0  2.01220E-02  2.01270E+03
   1  4  0  3.98749E-02  2.01368E+03
   1  6  0  6.21469E-04  2.13910E+03
   1  7  0  1.23210E-03  2.13910E+03
   1  2  2  7.12845E-02  1.75610E+03
   1  2  3  7.70090E-02  1.80411E+03
   1  2  4  1.49534E-01  1.80507E+03
   1  2  5  1.42971E-02  1.92604E+03
   1  2  6  3.09277E-03  1.93487E+03
   1  2  7  6.00170E-03  1.93492E+03
   1  3  3  1.35789E-02  1.85212E+03
   1  3  4  3.44468E-01  1.85308E+03
   1  3  5  6.87552E-03  1.97405E+03
   1  3  6  1.05204E-03  1.98288E+03
   1  3  7  1.25152E-02  1.98293E+03
   1  4  4  1.96055E-01  1.85404E+03
   1  4  5  1.33713E-02  1.97501E+03
   1  4  6  1.25043E-02  1.98384E+03
   1  4  7  1.43892E-02  1.98389E+03
   1  5  5  7.12833E-04  2.09598E+03
   1  5  6  2.75938E-04  2.10481E+03
   1  5  7  5.34626E-04  2.10486E+03
   1  6  6  1.72459E-05  2.11364E+03
   1  6  7  3.67923E-04  2.11369E+03
   1  7  7  2.12700E-04  2.11374E+03
   2  6  0  1.42970E-05  1.89340E+02
   2  7  0  2.50490E-05  1.86400E+02
   2  5  5  9.19772E-03  1.52730E+02
   2  5  6  6.89081E-03  1.61560E+02
   2  5  7  1.36935E-02  1.61610E+02
   2  6  6  8.43928E-05  1.70390E+02
   2  6  7  2.67913E-06  1.70440E+02
   2  7  7  1.74150E-04  1.70490E+02
   3  5  0  1.07310E-04  1.23000E+02
   3  7  0  9.51832E-09  1.27700E+02
   3  5  5  3.84224E-02  1.04720E+02
   3  5  6  4.09857E-01  1.13550E+02
   3  5  7  2.66610E-02  1.13600E+02
   3  6  6  1.11541E-01  1.22380E+02
   3  6  7  4.01870E-01  1.22430E+02
   3  7  7  1.15410E-02  1.22480E+02
   4  5  0  1.00720E-04  1.21410E+02
   4  6  0  4.44840E-09  1.29070E+02
   4  7  0  4.38500E-09  1.26100E+02
   4  5  5  3.74626E-02  1.03760E+02
   4  5  6  1.31656E-02  1.12590E+02
   4  5  7  4.23652E-01  1.12640E+02
   4  6  6  1.74570E-03  1.21420E+02
   4  6  7  2.10574E-01  1.21470E+02
   4  7  7  3.13300E-01  1.21520E+02
   2 30  0  3.97670E-04  4.86832E+01
   2 30 30  9.69519E-01  3.40177E+01
 *** RELAX:  Z = 16,  no. of shells =  7,  no. of transitions =   53
   1 1s1/2 2  2.47600E+03  5.20000E-01  5.50495E-02
   2 2s1/2 2  2.32000E+02  1.30000E+00  2.29436E-01
   3 2p1/2 2  1.70000E+02  9.00000E-02  1.21780E-01
   4 2p3/2 4  1.68000E+02  9.00000E-02  1.22328E-01
   5 3s1/2 2  2.02000E+01  0.00000E+00  7.91379E-01
   6 3p1/2 2  1.03600E+01  0.00000E+00  5.49112E-01
   7 3p3/2 2  1.03600E+01  0.00000E+00  5.51437E-01
   1  3  0  2.47822E-02  2.30670E+03
   1  4  0  4.90644E-02  2.30789E+03
   1  6  0  1.15591E-03  2.46973E+03
   1  7  0  2.28902E-03  2.46407E+03
   1  2  2  6.79961E-02  2.00396E+03
   1  2  3  7.39684E-02  2.05720E+03
   1  2  4  1.43069E-01  2.05853E+03
   1  2  5  1.42819E-02  2.20898E+03
   1  2  6  4.23283E-03  2.21959E+03
   1  2  7  8.17425E-03  2.21968E+03
   1  3  3  1.31472E-02  2.11044E+03
   1  3  4  3.31099E-01  2.11177E+03
   1  3  5  6.86216E-03  2.26222E+03
   1  3  6  1.45266E-03  2.27283E+03
   1  3  7  1.70618E-02  2.27292E+03
   1  4  4  1.88236E-01  2.11310E+03
   1  4  5  1.32869E-02  2.26355E+03
   1  4  6  1.70457E-02  2.27416E+03
   1  4  7  1.96027E-02  2.27425E+03
   1  5  5  7.44545E-04  2.41400E+03
   1  5  6  3.95703E-04  2.42461E+03
   1  5  7  7.60167E-04  2.42470E+03
   1  6  6  3.64445E-05  2.43522E+03
   1  6  7  7.96592E-04  2.43531E+03
   1  7  7  4.58163E-04  2.43540E+03
   2  3  0  1.30089E-04  5.32400E+01
   2  4  0  3.19088E-04  5.45700E+01
   2  6  0  3.05768E-05  2.27170E+02
   2  7  0  5.14767E-05  2.24960E+02
   2  5  5  8.19136E-03  1.84070E+02
   2  5  6  8.39006E-03  1.94680E+02
   2  5  7  1.66434E-02  1.94770E+02
   2  6  6  1.45352E-04  2.05290E+02
   2  6  7  1.13569E-05  2.05380E+02
   2  7  7  3.03228E-04  2.05470E+02
   3  5  0  2.07430E-04  1.48660E+02
   3  7  0  3.45370E-08  1.60520E+02
   3  5  5  2.44984E-02  1.30830E+02
   3  5  6  3.20372E-01  1.41440E+02
   3  5  7  2.13995E-02  1.41530E+02
   3  6  6  1.35178E-01  1.52050E+02
   3  6  7  4.84421E-01  1.52140E+02
   3  7  7  1.39230E-02  1.52230E+02
   4  5  0  1.95079E-04  1.48660E+02
   4  6  0  1.61379E-08  1.60930E+02
   4  7  0  1.58869E-08  1.58730E+02
   4  5  5  2.39739E-02  1.29500E+02
   4  5  6  1.05269E-02  1.40110E+02
   4  5  7  3.31167E-01  1.40200E+02
   4  6  6  2.17960E-03  1.50720E+02
   4  6  7  2.53969E-01  1.50810E+02
   4  7  7  3.77988E-01  1.50900E+02
   2 30 30  9.65784E-01  3.72100E+01
 *** RELAX:  Z = 17,  no. of shells =  7,  no. of transitions =   53
   1 1s1/2 2  2.82900E+03  5.70000E-01  5.16812E-02
   2 2s1/2 2  2.77000E+02  1.50000E+00  2.12221E-01
   3 2p1/2 2  2.08000E+02  1.10000E-01  1.11802E-01
   4 2p3/2 4  2.06000E+02  1.10000E-01  1.12363E-01
   5 3s1/2 2  2.45400E+01  0.00000E+00  7.10882E-01
   6 3p1/2 2  1.29700E+01  0.00000E+00  4.87831E-01
   7 3p3/2 3  1.29700E+01  0.00000E+00  4.90323E-01
   1  3  0  2.99473E-02  2.62085E+03
   1  4  0  5.92357E-02  2.62244E+03
   1  6  0  1.90852E-03  2.81560E+03
   1  7  0  3.77764E-03  2.81560E+03
   1  2  2  6.47454E-02  2.26880E+03
   1  2  3  7.07430E-02  2.32737E+03
   1  2  4  1.36245E-01  2.32915E+03
   1  2  5  1.40930E-02  2.51201E+03
   1  2  6  5.34453E-03  2.52443E+03
   1  2  7  1.02721E-02  2.52456E+03
   1  3  3  1.26685E-02  2.38594E+03
   1  3  4  3.17212E-01  2.38772E+03
   1  3  5  6.76930E-03  2.57058E+03
   1  3  6  1.84144E-03  2.58300E+03
   1  3  7  2.14432E-02  2.58313E+03
   1  4  4  1.80107E-01  2.38950E+03
   1  4  5  1.30550E-02  2.57236E+03
   1  4  6  2.14401E-02  2.58478E+03
   1  4  7  2.46207E-02  2.58491E+03
   1  5  5  7.57429E-04  2.75522E+03
   1  5  6  5.11276E-04  2.76764E+03
   1  5  7  9.89421E-04  2.76777E+03
   1  6  6  6.15382E-05  2.78006E+03
   1  6  7  1.40118E-03  2.78019E+03
   1  7  7  8.09499E-04  2.78032E+03
   2  3  0  1.32240E-04  5.85700E+01
   2  4  0  3.38699E-04  6.03500E+01
   2  6  0  5.77589E-05  2.68080E+02
   2  7  0  9.34599E-05  2.66620E+02
   2  5  5  7.21657E-03  2.18370E+02
   2  5  6  9.41985E-03  2.30790E+02
   2  5  7  1.86655E-02  2.30920E+02
   2  6  6  2.03716E-04  2.43210E+02
   2  6  7  3.00734E-05  2.43340E+02
   2  7  7  4.33629E-04  2.43470E+02
   3  5  0  3.58568E-04  1.84140E+02
   3  7  0  9.97973E-08  1.96310E+02
   3  5  5  1.68707E-02  1.59800E+02
   3  5  6  2.61091E-01  1.72220E+02
   3  5  7  1.78966E-02  1.72350E+02
   3  6  6  1.50680E-01  1.84640E+02
   3  6  7  5.37786E-01  1.84770E+02
   3  7  7  1.53179E-02  1.84900E+02
   4  5  0  3.37841E-04  1.82600E+02
   4  6  0  4.66351E-08  1.95370E+02
   4  7  0  4.58471E-08  1.93910E+02
   4  5  5  1.66045E-02  1.58020E+02
   4  5  6  8.74747E-03  1.70440E+02
   4  5  7  2.69969E-01  1.70570E+02
   4  6  6  2.48799E-03  1.82860E+02
   4  6  7  2.81903E-01  1.82990E+02
   4  7  7  4.19951E-01  1.83120E+02
   2 30 30  9.63409E-01  4.05815E+01
 *** RELAX:  Z = 19,  no. of shells =  8,  no. of transitions =   72
   1 1s1/2 2  3.61000E+03  7.10000E-01  4.60230E-02
   2 2s1/2 2  3.81000E+02  2.10000E+00  1.84412E-01
   3 2p1/2 2  2.99000E+02  1.80000E-01  9.58954E-02
   4 2p3/2 4  2.96000E+02  1.80000E-01  9.64819E-02
   5 3s1/2 2  3.70000E+01  7.00000E-01  5.67766E-01
   6 3p1/2 2  1.90000E+01  0.00000E+00  3.74525E-01
   7 3p3/2 4  1.87000E+01  0.00000E+00  3.76666E-01
  10 4s1/2 1  4.34100E+00  0.00000E+00  2.44866E+00
   1  3  0  4.18599E-02  3.31120E+03
   1  4  0  8.26518E-02  3.31395E+03
   1  6  0  3.99739E-03  3.58963E+03
   1  7  0  7.91008E-03  3.58963E+03
   1  2  2  5.89630E-02  2.84098E+03
   1  2  3  6.48009E-02  2.91049E+03
   1  2  4  1.23626E-01  2.91350E+03
   1  2  5  1.41070E-02  3.17164E+03
   1  2  6  6.89276E-03  3.18839E+03
   1  2  7  1.31233E-02  3.18867E+03
   1  2 10  6.86507E-04  3.20792E+03
   1  3  3  1.16788E-02  2.98000E+03
   1  3  4  2.89645E-01  2.98301E+03
   1  3  5  6.75386E-03  3.24115E+03
   1  3  6  2.38084E-03  3.25790E+03
   1  3  7  2.72851E-02  3.25818E+03
   1  3 10  3.25392E-04  3.27743E+03
   1  4  4  1.63935E-01  2.98602E+03
   1  4  5  1.29199E-02  3.24416E+03
   1  4  6  2.72613E-02  3.26091E+03
   1  4  7  3.12637E-02  3.26119E+03
   1  4 10  6.19017E-04  3.28044E+03
   1  5  5  8.33295E-04  3.50230E+03
   1  5  6  7.22188E-04  3.51905E+03
   1  5  7  1.37698E-03  3.51933E+03
   1  5 10  8.33295E-05  3.53858E+03
   1  6  6  1.19046E-04  3.53580E+03
   1  6  7  2.58323E-03  3.53608E+03
   1  6 10  3.57137E-05  3.55533E+03
   1  7  7  1.49204E-03  3.53636E+03
   1  7 10  6.74576E-05  3.55561E+03
   2  3  0  1.11190E-04  6.95100E+01
   2  4  0  3.14070E-04  7.25200E+01
   2  6  0  1.47230E-04  3.61810E+02
   2  7  0  2.25400E-04  3.61520E+02
   2  3 10  6.32995E-03  6.52900E+01
   2  4 10  1.22536E-02  6.83000E+01
   2  5  5  1.09421E-02  2.90160E+02
   2  5  6  1.84072E-02  3.06910E+02
   2  5  7  3.64059E-02  3.07190E+02
   2  5 10  9.71733E-04  3.26440E+02
   2  6  6  4.43715E-04  3.23660E+02
   2  6  7  1.62172E-04  3.23940E+02
   2  6 10  7.22612E-04  3.43190E+02
   2  7  7  1.00934E-03  3.24220E+02
   2  7 10  1.42836E-03  3.43470E+02
   3  5  0  8.35413E-04  2.62450E+02
   3  7  0  4.81412E-07  2.79520E+02
   3 10  0  2.03921E-05  2.97430E+02
   3  5  5  1.14174E-02  2.20650E+02
   3  5  6  2.07641E-01  2.37400E+02
   3  5  7  1.48840E-02  2.37680E+02
   3  5 10  9.88199E-04  2.56930E+02
   3  6  6  1.62162E-01  2.54150E+02
   3  6  7  5.74928E-01  2.54430E+02
   3  6 10  1.03231E-02  2.73680E+02
   3  7  7  1.61615E-02  2.54710E+02
   3  7 10  6.38519E-04  2.73960E+02
   4  5  0  7.89471E-04  2.59703E+02
   4  6  0  2.24120E-07  2.77180E+02
   4  7  0  2.20150E-07  2.76900E+02
   4 10  0  1.92520E-05  2.94420E+02
   4  5  5  1.12219E-02  2.17640E+02
   4  5  6  7.18101E-03  2.34390E+02
   4  5  7  2.13721E-01  2.34670E+02
   4  5 10  9.76484E-04  2.53920E+02
   4  6  6  2.71897E-03  2.51140E+02
   4  6  7  2.99761E-01  2.51420E+02
   4  6 10  3.00446E-04  2.70670E+02
   4  7  7  4.52595E-01  2.51700E+02
   4  7 10  1.07157E-02  2.70950E+02
   2 30 30  9.10126E-01  4.00274E+01
 *** RELAX:  Z = 20,  no. of shells =  8,  no. of transitions =   72
   1 1s1/2 2  4.04100E+03  7.70000E-01  4.36230E-02
   2 2s1/2 2  4.41000E+02  2.50000E+00  1.72935E-01
   3 2p1/2 2  3.53000E+02  2.10000E-01  8.95584E-02
   4 2p3/2 4  3.49000E+02  2.10000E-01  9.01604E-02
   5 3s1/2 2  4.60000E+01  1.10000E+00  5.06050E-01
   6 3p1/2 2  2.80000E+01  1.20000E+00  3.28910E-01
   7 3p3/2 4  2.80000E+01  1.20000E+00  3.30822E-01
  10 4s1/2 2  6.11300E+00  0.00000E+00  1.93895E+00
   1  3  0  4.87196E-02  3.68813E+03
   1  4  0  9.61323E-02  3.69172E+03
   1  6  0  5.17776E-03  4.01276E+03
   1  7  0  1.02489E-02  4.01276E+03
   1  2  2  5.63485E-02  3.14678E+03
   1  2  3  6.20531E-02  3.22185E+03
   1  2  4  1.17762E-01  3.22569E+03
   1  2  5  1.42824E-02  3.52773E+03
   1  2  6  7.23290E-03  3.54688E+03
   1  2  7  1.37034E-02  3.54729E+03
   1  2 10  1.62556E-03  3.57544E+03
   1  3  3  1.12223E-02  3.29692E+03
   1  3  4  2.76841E-01  3.30076E+03
   1  3  5  6.82757E-03  3.60280E+03
   1  3  6  2.49498E-03  3.62195E+03
   1  3  7  2.84282E-02  3.62236E+03
   1  3 10  7.63476E-04  3.65051E+03
   1  4  4  1.56416E-01  3.30460E+03
   1  4  5  1.29934E-02  3.60664E+03
   1  4  6  2.83839E-02  3.62579E+03
   1  4  7  3.25412E-02  3.62620E+03
   1  4 10  1.45385E-03  3.65435E+03
   1  5  5  8.72175E-04  3.90868E+03
   1  5  6  7.79616E-04  3.92783E+03
   1  5  7  1.47733E-03  3.92824E+03
   1  5 10  1.99359E-04  3.95639E+03
   1  6  6  1.35157E-04  3.94698E+03
   1  6  7  2.93344E-03  3.94739E+03
   1  6 10  8.76773E-05  3.97554E+03
   1  7  7  1.69495E-03  3.94780E+03
   1  7 10  1.68035E-04  3.97595E+03
   2  3  0  9.42443E-05  7.50700E+01
   2  4  0  2.78501E-04  7.89100E+01
   2  6  0  2.04061E-04  4.15430E+02
   2  7  0  3.06021E-04  4.15800E+02
   2  3 10  1.42567E-02  6.96200E+01
   2  4 10  2.73691E-02  7.34600E+01
   2  5  5  1.31208E-02  3.27790E+02
   2  5  6  2.28754E-02  3.46940E+02
   2  5  7  4.52192E-02  3.47350E+02
   2  5 10  2.68682E-03  3.75500E+02
   2  6  6  5.21721E-04  3.66090E+02
   2  6  7  2.67985E-04  3.66500E+02
   2  6 10  2.04550E-03  3.94650E+02
   2  7  7  1.23299E-03  3.66910E+02
   2  7 10  4.04393E-03  3.95060E+02
   3  5  0  1.19571E-03  3.06430E+02
   3  7  0  8.74676E-07  3.27120E+02
   3 10  0  2.53632E-05  3.53590E+02
   3  5  5  1.08556E-02  2.52720E+02
   3  5  6  1.98917E-01  2.71870E+02
   3  5  7  1.45844E-02  2.72280E+02
   3  5 10  2.13424E-03  3.00430E+02
   3  6  6  1.61409E-01  2.91020E+02
   3  6  7  5.70643E-01  2.91430E+02
   3  6 10  2.29240E-02  3.19580E+02
   3  7  7  1.58751E-02  2.91840E+02
   3  7 10  1.43604E-03  3.19990E+02
   4  5  0  1.13130E-03  3.02690E+02
   4  6  0  4.05972E-07  3.23340E+02
   4  7  0  3.98812E-07  3.23710E+02
   4 10  0  2.39671E-05  3.49750E+02
   4  5  5  1.06175E-02  2.48880E+02
   4  5  6  6.94101E-03  2.68030E+02
   4  5  7  2.03179E-01  2.68440E+02
   4  5 10  2.10301E-03  2.96590E+02
   4  6  6  2.69658E-03  2.87180E+02
   4  6  7  2.95034E-01  2.87590E+02
   4  6 10  6.70949E-04  3.15740E+02
   4  7  7  4.53602E-01  2.88000E+02
   4  7 10  2.39998E-02  3.16150E+02
   2 30 30  8.65477E-01  3.53086E+01
 *** RELAX:  Z = 26,  no. of shells = 10,  no. of transitions =  148
   1 1s1/2 2  7.11700E+03  1.19000E+00  3.31215E-02
   2 2s1/2 2  8.51000E+02  7.00000E+00  1.25935E-01
   3 2p1/2 2  7.26000E+02  1.14000E+00  6.41844E-02
   4 2p3/2 4  7.13000E+02  4.10000E-01  6.49062E-02
   5 3s1/2 2  9.80000E+01  2.40000E+00  3.51458E-01
   6 3p1/2 2  6.10000E+01  1.23000E+00  2.20645E-01
   7 3p3/2 4  5.90000E+01  1.23000E+00  2.22909E-01
   8 3d3/2 4  9.00000E+00  0.00000E+00  2.01788E-01
   9 3d5/2 2  9.00000E+00  0.00000E+00  2.02832E-01
  10 4s1/2 2  7.87000E+00  0.00000E+00  1.53122E+00
   1  3  0  1.01391E-01  6.39103E+03
   1  4  0  1.98621E-01  6.40401E+03
   1  6  0  1.22111E-02  7.05818E+03
   1  7  0  2.40042E-02  7.05818E+03
   1  8  0  6.00794E-06  7.10826E+03
   1  9  0  8.77226E-06  7.10826E+03
   1  2  2  4.47039E-02  5.39748E+03
   1  2  3  4.96309E-02  5.50689E+03
   1  2  4  9.05528E-02  5.51975E+03
   1  2  5  1.20010E-02  6.13943E+03
   1  2  6  6.37861E-03  6.17240E+03
   1  2  7  1.15700E-02  6.17399E+03
   1  2  8  1.85335E-04  6.22753E+03
   1  2  9  2.57546E-04  6.22770E+03
   1  2 10  1.06145E-03  6.23291E+03
   1  3  3  8.91045E-03  5.61630E+03
   1  3  4  2.13819E-01  5.62916E+03
   1  3  5  5.68040E-03  6.24884E+03
   1  3  6  2.15909E-03  6.28181E+03
   1  3  7  2.36911E-02  6.28340E+03
   1  3  8  2.57540E-04  6.33694E+03
   1  3  9  9.60385E-04  6.33711E+03
   1  3 10  4.93427E-04  6.34232E+03
   1  4  4  1.19207E-01  5.64202E+03
   1  4  5  1.04085E-02  6.26170E+03
   1  4  6  2.36893E-02  6.29467E+03
   1  4  7  2.68353E-02  6.29626E+03
   1  4  8  1.19389E-03  6.34980E+03
   1  4  9  1.17463E-03  6.34997E+03
   1  4 10  9.02593E-04  6.35518E+03
   1  5  5  8.02277E-04  6.88138E+03
   1  5  6  7.39263E-04  6.91435E+03
   1  5  7  1.34525E-03  6.91594E+03
   1  5  8  1.93914E-05  6.96948E+03
   1  5  9  2.66629E-05  6.96965E+03
   1  5 10  1.40581E-04  6.97486E+03
   1  6  6  1.28144E-04  6.94732E+03
   1  6  7  2.71062E-03  6.94891E+03
   1  6  8  2.21776E-05  7.00245E+03
   1  6  9  8.87081E-05  7.00262E+03
   1  6 10  6.40678E-05  7.00783E+03
   1  7  7  1.58655E-03  6.95050E+03
   1  7  8  1.16223E-04  7.00404E+03
   1  7  9  1.11167E-04  7.00421E+03
   1  7 10  1.21269E-04  7.00942E+03
   1  8  9  3.85858E-06  7.05775E+03
   1  8 10  3.85858E-06  7.06296E+03
   1  9 10  3.51272E-06  7.06313E+03
   2  3  0  2.87212E-05  1.09410E+02
   2  4  0  1.12411E-04  1.22270E+02
   2  6  0  5.33553E-04  7.92200E+02
   2  7  0  7.92105E-04  7.92200E+02
   2  8  0  1.62101E-06  8.44520E+02
   2  9  0  2.20171E-06  8.45440E+02
   2  3  8  4.09703E-02  9.65000E+01
   2  3  9  6.68427E-02  9.66700E+01
   2  3 10  6.19976E-03  1.01880E+02
   2  4  6  6.47652E-02  5.42300E+01
   2  4  7  1.45310E-01  5.58200E+01
   2  4  8  9.68238E-02  1.09360E+02
   2  4  9  1.37175E-01  1.09530E+02
   2  4 10  1.13749E-02  1.14740E+02
   2  5  5  1.42253E-02  6.40940E+02
   2  5  6  2.56412E-02  6.73910E+02
   2  5  7  5.02067E-02  6.75500E+02
   2  5  8  1.57957E-02  7.29040E+02
   2  5  9  2.33060E-02  7.29210E+02
   2  5 10  2.24577E-03  7.34420E+02
   2  6  6  4.09652E-04  7.06880E+02
   2  6  7  6.68243E-04  7.08470E+02
   2  6  8  2.32428E-04  7.62010E+02
   2  6  9  4.40741E-03  7.62180E+02
   2  6 10  1.77081E-03  7.67390E+02
   2  7  7  1.17810E-03  7.10060E+02
   2  7  8  4.46042E-03  7.63600E+02
   2  7  9  3.23254E-03  7.63770E+02
   2  7 10  3.28901E-03  7.68980E+02
   2  8  8  2.58444E-04  8.17140E+02
   2  8  9  1.35249E-02  8.17310E+02
   2  8 10  1.10876E-03  8.22520E+02
   2  9  9  3.53869E-03  8.17480E+02
   2  9 10  1.55434E-03  8.22690E+02
   3  5  0  4.03768E-03  6.27800E+02
   3  7  0  9.18115E-06  6.70400E+02
   3  8  0  1.40199E-03  7.18320E+02
   3 10  0  8.27386E-05  7.26020E+02
   3  5  5  5.72017E-03  5.31530E+02
   3  5  6  1.04744E-01  5.64500E+02
   3  5  7  8.48542E-03  5.66090E+02
   3  5  8  3.52272E-03  6.19630E+02
   3  5  9  6.29489E-03  6.19800E+02
   3  5 10  8.72234E-04  6.25010E+02
   3  6  6  8.91640E-02  5.97470E+02
   3  6  7  3.09321E-01  5.99060E+02
   3  6  8  6.45901E-02  6.52600E+02
   3  6  9  1.25120E-01  6.52770E+02
   3  6 10  9.30123E-03  6.57980E+02
   3  7  7  8.61400E-03  6.00650E+02
   3  7  8  7.55051E-02  6.54190E+02
   3  7  9  1.14600E-02  6.54360E+02
   3  7 10  6.69397E-04  6.59570E+02
   3  8  8  2.94353E-02  7.07730E+02
   3  8  9  1.34354E-01  7.07900E+02
   3  8 10  3.10265E-04  7.13110E+02
   3  9  9  6.45717E-03  7.08070E+02
   3  9 10  5.27395E-04  7.13280E+02
   4  5  0  3.75953E-03  6.15300E+02
   4  6  0  4.56623E-06  6.50100E+02
   4  7  0  4.45063E-06  6.56800E+02
   4  8  0  1.14991E-04  7.04800E+02
   4  9  0  1.28521E-03  7.04800E+02
   4 10  0  7.69576E-05  7.13160E+02
   4  5  5  5.47610E-03  5.18670E+02
   4  5  6  3.75614E-03  5.51640E+02
   4  5  7  1.02560E-01  5.53230E+02
   4  5  8  4.09120E-03  6.06770E+02
   4  5  9  5.60270E-03  6.06940E+02
   4  5 10  8.34691E-04  6.12150E+02
   4  6  6  1.43545E-03  5.84610E+02
   4  6  7  1.55075E-01  5.86200E+02
   4  6  8  3.86376E-03  6.39740E+02
   4  6  9  3.74865E-02  6.39910E+02
   4  6 10  2.90883E-04  6.45120E+02
   4  7  7  2.29412E-01  5.87790E+02
   4  7  8  9.02988E-02  6.41330E+02
   4  7  9  1.34973E-01  6.41500E+02
   4  7 10  9.09931E-03  6.46710E+02
   4  8  8  5.93307E-03  6.94870E+02
   4  8  9  1.20726E-01  6.95040E+02
   4  8 10  4.31648E-04  7.00250E+02
   4  9  9  8.28033E-02  6.95210E+02
   4  9 10  6.04329E-04  7.00420E+02
   5  8  8  1.07986E-03  7.51900E+01
   5  8  9  2.33924E-02  7.53600E+01
   5  8 10  2.57210E-02  8.05700E+01
   5  9  9  6.79262E-03  7.55300E+01
   5  9 10  3.82746E-02  8.07400E+01
   6  8  0  3.89240E-06  5.51300E+01
   6 10  0  3.74790E-07  6.05100E+01
   7  8  0  3.49259E-07  5.35400E+01
   7  9  0  3.18269E-06  5.37100E+01
   7 10  0  1.15860E-07  5.89200E+01
   2 30 30  2.58014E-01  3.13991E+01
   3 30  0  2.04719E-10  1.28600E+01
   5 30  0  1.44183E-05  3.40828E+01
   5 30 30  9.04726E-01  2.23033E+01
   6 30 30  9.99996E-01  4.28322E+01
   7 30 30  9.99996E-01  4.13518E+01
 *** RELAX:  Z = 30,  no. of shells = 10,  no. of transitions =  165
   1 1s1/2 2  9.66300E+03  1.62000E+00  2.84671E-02
   2 2s1/2 2  1.19800E+03  4.80000E+00  1.06518E-01
   3 2p1/2 2  1.04700E+03  1.06000E+00  5.39403E-02
   4 2p3/2 4  1.02400E+03  6.80000E-01  5.47521E-02
   5 3s1/2 2  1.41000E+02  2.10000E+00  2.95031E-01
   6 3p1/2 2  9.40000E+01  2.10000E+00  1.82703E-01
   7 3p3/2 4  9.10000E+01  2.15000E+00  1.85311E-01
   8 3d3/2 4  1.20000E+01  0.00000E+00  1.62620E-01
   9 3d5/2 6  1.12000E+01  0.00000E+00  1.64072E-01
  10 4s1/2 2  9.39400E+00  0.00000E+00  1.38590E+00
