 PENELOPE (v. 2018)  Material data file ...............
 Material: COPPER  (29)                                                  
 Mass density = 8.96000000E+00 g/cm**3
 Number of elements in the molecule =  1
   atomic number = 29,  atoms/molecule = 1.00000000E+00
 Mean excitation energy = 3.22000000E+02 eV
 Number of oscillators =  9 (E/P inelastic model)
   1  1.00000000E+00  0.00000000E+00  1.08203833E+01   0  30
   2  1.00000000E+01  1.06400000E+01  3.73564952E+01  29  30
   3  4.00000000E+00  8.00000000E+01  2.37117944E+02  29   7
   4  2.00000000E+00  8.20000000E+01  2.42691971E+02  29   6
   5  2.00000000E+00  1.27000000E+02  3.75586021E+02  29   5
   6  4.00000000E+00  9.38000000E+02  2.77253425E+03  29   4
   7  2.00000000E+00  9.58000000E+02  2.83162018E+03  29   3
   8  2.00000000E+00  1.10300000E+03  3.26019791E+03  29   2
   9  2.00000000E+00  8.98600000E+03  2.65602235E+04  29   1
 Number of shells = 10 (Compton IA model)
   1  1.00000000E+00  0.00000000E+00  1.22875047E+00   0  30
   2  6.00000000E+00  1.04000000E+01  1.87154000E-01  29  30
   3  4.00000000E+00  1.10000000E+01  1.85026000E-01  29  30
   4  4.00000000E+00  8.00000000E+01  1.95626000E-01  29   7
   5  2.00000000E+00  8.20000000E+01  1.92987000E-01  29   6
   6  2.00000000E+00  1.27000000E+02  3.10672000E-01  29   5
   7  4.00000000E+00  9.38000000E+02  5.69789000E-02  29   4
   8  2.00000000E+00  9.58000000E+02  5.61903000E-02  29   3
   9  2.00000000E+00  1.10300000E+03  1.10809000E-01  29   2
  10  2.00000000E+00  8.98600000E+03  2.95096000E-02  29   1
 *** RELAX:  Z = 29,  no. of shells = 10,  no. of transitions =  158
   1 1s1/2 2  8.98600E+03  1.49000E+00  2.95096E-02
   2 2s1/2 2  1.10300E+03  5.50000E+00  1.10809E-01
   3 2p1/2 2  9.58000E+02  1.04000E+00  5.61903E-02
   4 2p3/2 4  9.38000E+02  6.10000E-01  5.69789E-02
   5 3s1/2 2  1.27000E+02  2.20000E+00  3.10672E-01
   6 3p1/2 2  8.20000E+01  1.90000E+00  1.92987E-01
   7 3p3/2 4  8.00000E+01  1.80000E+00  1.95626E-01
   8 3d3/2 4  1.10000E+01  0.00000E+00  1.85026E-01
   9 3d5/2 6  1.04000E+01  0.00000E+00  1.87154E-01
  10 4s1/2 1  7.72600E+00  0.00000E+00  1.60814E+00
   1  3  0  1.31119E-01  8.02784E+03
   1  4  0  2.55668E-01  8.04782E+03
   1  6  0  1.58899E-02  8.90541E+03
   1  7  0  3.10908E-02  8.90541E+03
   1  8  0  1.79389E-05  8.97714E+03
   1  9  0  2.59348E-05  8.97714E+03
   1  2  2  3.88567E-02  6.77100E+03
   1  2  3  4.31908E-02  6.89857E+03
   1  2  4  7.68383E-02  6.91961E+03
   1  2  5  1.04073E-02  7.73584E+03
   1  2  6  5.57458E-03  7.77660E+03
   1  2  7  9.82486E-03  7.77924E+03
   1  2  8  2.80672E-04  7.84701E+03
   1  2  9  3.81309E-04  7.84730E+03
   1  2 10  3.54221E-04  7.84999E+03
   1  3  3  7.65781E-03  7.02614E+03
   1  3  4  1.81191E-01  7.04718E+03
   1  3  5  4.90291E-03  7.86341E+03
   1  3  6  1.85044E-03  7.90417E+03
   1  3  7  1.99826E-02  7.90681E+03
   1  3  8  3.89071E-04  7.97458E+03
   1  3  9  1.43235E-03  7.97487E+03
   1  3 10  1.62596E-04  7.97756E+03
   1  4  4  1.00194E-01  7.06822E+03
   1  4  5  8.76108E-03  7.88445E+03
   1  4  6  2.00201E-02  7.92521E+03
   1  4  7  2.24684E-02  7.92785E+03
   1  4  8  1.77886E-03  7.99562E+03
   1  4  9  1.73429E-03  7.99591E+03
   1  4 10  2.92272E-04  7.99860E+03
   1  5  5  7.62703E-04  8.70068E+03
   1  5  6  7.04830E-04  8.74144E+03
   1  5  7  1.24470E-03  8.74408E+03
   1  5  8  3.21362E-05  8.81185E+03
   1  5  9  4.49905E-05  8.81214E+03
   1  5 10  5.14183E-05  8.81483E+03
   1  6  6  1.20557E-04  8.78220E+03
   1  6  7  2.52309E-03  8.78484E+03
   1  6  8  3.72645E-05  8.85261E+03
   1  6  9  1.46859E-04  8.85290E+03
   1  6 10  2.41126E-05  8.85559E+03
   1  7  7  1.52046E-03  8.78748E+03
   1  7  8  1.96192E-04  8.85525E+03
   1  7  9  1.86855E-04  8.85554E+03
   1  7 10  4.43756E-05  8.85823E+03
   1  8  9  1.10707E-05  8.92331E+03
   1  8 10  2.21424E-06  8.92600E+03
   1  9  9  4.12417E-06  8.92360E+03
   1  9 10  4.12417E-06  8.92629E+03
   2  3  0  1.91460E-05  1.27570E+02
   2  4  0  8.71820E-05  1.48610E+02
   2  6  0  6.88360E-04  1.02279E+03
   2  7  0  1.06520E-03  1.02279E+03
   2  8  0  2.60100E-06  1.09270E+03
   2  9  0  3.42210E-06  1.09300E+03
   2  3  8  4.64820E-02  1.17480E+02
   2  3  9  7.46387E-02  1.17770E+02
   2  3 10  1.99240E-03  1.20460E+02
   2  4  6  5.88771E-02  6.81100E+01
   2  4  7  1.25939E-01  7.07500E+01
   2  4  8  1.14171E-01  1.38520E+02
   2  4  9  1.62177E-01  1.38810E+02
   2  4 10  3.56746E-03  1.41500E+02
   2  5  5  1.12747E-02  8.43580E+02
   2  5  6  2.04284E-02  8.84340E+02
   2  5  7  3.97086E-02  8.86980E+02
   2  5  8  2.10300E-02  9.54750E+02
   2  5  9  3.08047E-02  9.55040E+02
   2  5 10  6.83622E-04  9.57730E+02
   2  6  6  3.03846E-04  9.25100E+02
   2  6  7  6.94692E-04  9.27740E+02
   2  6  8  3.37886E-04  9.95510E+02
   2  6  9  6.64782E-03  9.95800E+02
   2  6 10  5.86257E-04  9.98490E+02
   2  7  7  1.07698E-03  9.30380E+02
   2  7  8  7.13355E-03  9.98150E+02
   2  7  9  5.09460E-03  9.98440E+02
   2  7 10  1.18286E-03  1.00113E+03
   2  8  8  5.63180E-04  1.06592E+03
   2  8  9  2.86944E-02  1.06621E+03
   2  8 10  5.17393E-04  1.06890E+03
   2  9  9  8.31045E-03  1.06650E+03
   2  9 10  8.00352E-04  1.06919E+03
   3  5  0  4.65603E-03  8.32100E+02
   3  7  0  1.62541E-05  8.78500E+02
   3  8  0  4.42993E-03  9.49840E+02
   3 10  0  1.20891E-04  9.51420E+02
   3  5  5  3.62933E-03  7.16010E+02
   3  5  6  6.68802E-02  7.56770E+02
   3  5  7  5.61858E-03  7.59410E+02
   3  5  8  3.11852E-03  8.27180E+02
   3  5  9  6.83737E-03  8.27470E+02
   3  5 10  2.10585E-04  8.30160E+02
   3  6  6  5.77499E-02  7.97530E+02
   3  6  7  1.98084E-01  8.00170E+02
   3  6  8  6.92466E-02  8.67940E+02
   3  6  9  1.31715E-01  8.68230E+02
   3  6 10  2.26721E-03  8.70920E+02
   3  7  7  5.52451E-03  8.02810E+02
   3  7  8  8.26916E-02  8.70580E+02
   3  7  9  1.22043E-02  8.70870E+02
   3  7 10  1.70255E-04  8.73560E+02
   3  8  8  5.84943E-02  9.38350E+02
   3  8  9  2.65016E-01  9.38640E+02
   3  8 10  1.12427E-04  9.41330E+02
   3  9  9  1.20386E-02  9.38930E+02
   3  9 10  2.19538E-04  9.41620E+02
   4  5  0  4.33818E-03  8.11080E+02
   4  6  0  8.20307E-06  8.55800E+02
   4  7  0  7.94827E-06  8.58800E+02
   4  8  0  3.70919E-04  9.29680E+02
   4  9  0  3.97209E-03  9.29680E+02
   4 10  0  1.06190E-04  9.30380E+02
   4  5  5  3.73446E-03  6.94970E+02
   4  5  6  2.60360E-03  7.35730E+02
   4  5  7  6.94080E-02  7.38370E+02
   4  5  8  4.66601E-03  8.06140E+02
   4  5  9  5.73035E-03  8.06430E+02
   4  5 10  2.17322E-04  8.09120E+02
   4  6  6  9.75756E-04  7.76490E+02
   4  6  7  1.05475E-01  7.79130E+02
   4  6  8  4.55055E-03  8.46900E+02
   4  6  9  4.33586E-02  8.47190E+02
   4  6 10  7.98344E-05  8.49880E+02
   4  7  7  1.54845E-01  7.81770E+02
   4  7  8  1.01637E-01  8.49540E+02
   4  7  9  1.52475E-01  8.49830E+02
   4  7 10  2.34172E-03  8.52520E+02
   4  8  8  9.71767E-03  9.17310E+02
   4  8  9  1.96561E-01  9.17600E+02
   4  8 10  1.50793E-04  9.20290E+02
   4  9  9  1.32479E-01  9.17890E+02
   4  9 10  1.90728E-04  9.20580E+02
   5  8  8  3.64835E-03  1.01080E+02
   5  8  9  5.39118E-02  1.01370E+02
   5  8 10  1.58988E-02  1.04060E+02
   5  9  9  2.70922E-02  1.01660E+02
   5  9 10  3.43707E-02  1.04350E+02
   6  8  0  1.91500E-05  7.04100E+01
   6 10  0  2.33800E-06  7.33900E+01
   6  8  8  1.53632E-01  6.03200E+01
   6  8  9  7.98786E-01  6.06100E+01
   6  8 10  1.91501E-02  6.33000E+01
   6  9  9  2.43355E-02  6.09000E+01
   6  9 10  4.07449E-03  6.35900E+01
   7  8  0  1.74600E-06  6.77700E+01
   7  9  0  1.59670E-05  6.80600E+01
   7 10  0  9.55071E-07  7.07500E+01
   7  8  8  2.35524E-02  5.76800E+01
   7  8  9  5.54813E-01  5.79700E+01
   7  8 10  4.32518E-03  6.06600E+01
   7  9  9  3.96490E-01  5.82600E+01
   7  9 10  2.08001E-02  6.09500E+01
   2 30 30  2.24416E-01  3.84504E+01
   3 30  0  5.18584E-10  2.10400E+01
   3 30 30  8.94776E-03  1.39300E+01
   5 30  0  2.82323E-05  4.26355E+01
   5 30 30  8.65050E-01  3.28258E+01
 *** Electron ionisation cross sections,  IZ = 29,  NSHELL =  7,  NDATA = 473
 4.00000E+01 0.00000E+00 0.00000E+00 0.00000E+00 0.00000E+00 0.00000E+00 0.00000E+00 0.00000E+00
 4.50000E+01 0.00000E+00 0.00000E+00 0.00000E+00 0.00000E+00 0.00000E+00 0.00000E+00 0.00000E+00
 5.00000E+01 0.00000E+00 0.00000E+00 0.00000E+00 0.00000E+00 0.00000E+00 0.00000E+00 0.00000E+00
 5.50000E+01 0.00000E+00 0.00000E+00 0.00000E+00 0.00000E+00 0.00000E+00 0.00000E+00 0.00000E+00
 6.00000E+01 0.00000E+00 0.00000E+00 0.00000E+00 0.00000E+00 0.00000E+00 0.00000E+00 0.00000E+00
 7.00000E+01 0.00000E+00 0.00000E+00 0.00000E+00 0.00000E+00 0.00000E+00 0.00000E+00 0.00000E+00
 8.00000E+01 0.00000E+00 0.00000E+00 0.00000E+00 0.00000E+00 0.00000E+00 0.00000E+00 0.00000E+00
 8.00000E+01 0.00000E+00 0.00000E+00 0.00000E+00 0.00000E+00 0.00000E+00 0.00000E+00 0.00000E+00
 8.20000E+01 0.00000E+00 0.00000E+00 0.00000E+00 0.00000E+00 0.00000E+00 0.00000E+00 1.59442E-19
 8.20000E+01 0.00000E+00 0.00000E+00 0.00000E+00 0.00000E+00 0.00000E+00 0.00000E+00 1.59442E-19
 8.80000E+01 0.00000E+00 0.00000E+00 0.00000E+00 0.00000E+00 0.00000E+00 2.12208E-19 5.86944E-19
 8.89462E+01 0.00000E+00 0.00000E+00 0.00000E+00 0.00000E+00 0.00000E+00 2.42475E-19 6.48227E-19
 9.00000E+01 0.00000E+00 0.00000E+00 0.00000E+00 0.00000E+00 0.00000E+00 2.75273E-19 7.14716E-19
 9.02000E+01 0.00000E+00 0.00000E+00 0.00000E+00 0.00000E+00 0.00000E+00 2.81393E-19 7.27131E-19
 9.08693E+01 0.00000E+00 0.00000E+00 0.00000E+00 0.00000E+00 0.00000E+00 3.01634E-19 7.68216E-19
 9.11699E+01 0.00000E+00 0.00000E+00 0.00000E+00 0.00000E+00 0.00000E+00 3.10609E-19 7.86442E-19
 9.18463E+01 0.00000E+00 0.00000E+00 0.00000E+00 0.00000E+00 0.00000E+00 3.30545E-19 8.26953E-19
 9.21502E+01 0.00000E+00 0.00000E+00 0.00000E+00 0.00000E+00 0.00000E+00 3.39385E-19 8.44925E-19
 9.28339E+01 0.00000E+00 0.00000E+00 0.00000E+00 0.00000E+00 0.00000E+00 3.59023E-19 8.84871E-19
 9.31410E+01 0.00000E+00 0.00000E+00 0.00000E+00 0.00000E+00 0.00000E+00 3.67731E-19 9.02593E-19
 9.38321E+01 0.00000E+00 0.00000E+00 0.00000E+00 0.00000E+00 0.00000E+00 3.87078E-19 9.41985E-19
 9.41425E+01 0.00000E+00 0.00000E+00 0.00000E+00 0.00000E+00 0.00000E+00 3.95656E-19 9.59461E-19
 9.48410E+01 0.00000E+00 0.00000E+00 0.00000E+00 0.00000E+00 0.00000E+00 4.14717E-19 9.98308E-19
 9.51547E+01 0.00000E+00 0.00000E+00 0.00000E+00 0.00000E+00 0.00000E+00 4.23169E-19 1.01554E-18
 9.58608E+01 0.00000E+00 0.00000E+00 0.00000E+00 0.00000E+00 0.00000E+00 4.41949E-19 1.05385E-18
 9.61779E+01 0.00000E+00 0.00000E+00 0.00000E+00 0.00000E+00 0.00000E+00 4.50277E-19 1.07085E-18
 9.68915E+01 0.00000E+00 0.00000E+00 0.00000E+00 0.00000E+00 0.00000E+00 4.68783E-19 1.10864E-18
 9.72120E+01 0.00000E+00 0.00000E+00 0.00000E+00 0.00000E+00 0.00000E+00 4.76990E-19 1.12540E-18
 9.79333E+01 0.00000E+00 0.00000E+00 0.00000E+00 0.00000E+00 0.00000E+00 4.95226E-19 1.16267E-18
 9.82573E+01 0.00000E+00 0.00000E+00 0.00000E+00 0.00000E+00 0.00000E+00 5.03314E-19 1.17920E-18
 9.89863E+01 0.00000E+00 0.00000E+00 0.00000E+00 0.00000E+00 0.00000E+00 5.21286E-19 1.21596E-18
 9.93138E+01 0.00000E+00 0.00000E+00 0.00000E+00 0.00000E+00 0.00000E+00 5.29258E-19 1.23227E-18
 1.00000E+02 0.00000E+00 0.00000E+00 0.00000E+00 0.00000E+00 0.00000E+00 5.45763E-19 1.26606E-18
 1.00382E+02 0.00000E+00 0.00000E+00 0.00000E+00 0.00000E+00 0.00000E+00 5.54828E-19 1.28462E-18
 1.01126E+02 0.00000E+00 0.00000E+00 0.00000E+00 0.00000E+00 0.00000E+00 5.72288E-19 1.32038E-18
 1.01461E+02 0.00000E+00 0.00000E+00 0.00000E+00 0.00000E+00 0.00000E+00 5.80032E-19 1.33625E-18
 1.02214E+02 0.00000E+00 0.00000E+00 0.00000E+00 0.00000E+00 0.00000E+00 5.97243E-19 1.37153E-18
 1.02552E+02 0.00000E+00 0.00000E+00 0.00000E+00 0.00000E+00 0.00000E+00 6.04877E-19 1.38719E-18
 1.03313E+02 0.00000E+00 0.00000E+00 0.00000E+00 0.00000E+00 0.00000E+00 6.21843E-19 1.42199E-18
 1.03655E+02 0.00000E+00 0.00000E+00 0.00000E+00 0.00000E+00 0.00000E+00 6.29369E-19 1.43743E-18
 1.04424E+02 0.00000E+00 0.00000E+00 0.00000E+00 0.00000E+00 0.00000E+00 6.46095E-19 1.47176E-18
 1.04769E+02 0.00000E+00 0.00000E+00 0.00000E+00 0.00000E+00 0.00000E+00 6.53515E-19 1.48700E-18
 1.05547E+02 0.00000E+00 0.00000E+00 0.00000E+00 0.00000E+00 0.00000E+00 6.70005E-19 1.52087E-18
 1.05896E+02 0.00000E+00 0.00000E+00 0.00000E+00 0.00000E+00 0.00000E+00 6.77320E-19 1.53590E-18
 1.06681E+02 0.00000E+00 0.00000E+00 0.00000E+00 0.00000E+00 0.00000E+00 6.93579E-19 1.56931E-18
 1.07034E+02 0.00000E+00 0.00000E+00 0.00000E+00 0.00000E+00 0.00000E+00 7.00791E-19 1.58413E-18
 1.07828E+02 0.00000E+00 0.00000E+00 0.00000E+00 0.00000E+00 0.00000E+00 7.16822E-19 1.61710E-18
 1.08185E+02 0.00000E+00 0.00000E+00 0.00000E+00 0.00000E+00 0.00000E+00 7.23934E-19 1.63173E-18
 1.08988E+02 0.00000E+00 0.00000E+00 0.00000E+00 0.00000E+00 0.00000E+00 7.39740E-19 1.66424E-18
 1.09348E+02 0.00000E+00 0.00000E+00 0.00000E+00 0.00000E+00 0.00000E+00 7.46752E-19 1.67868E-18
 1.10000E+02 0.00000E+00 0.00000E+00 0.00000E+00 0.00000E+00 0.00000E+00 7.59290E-19 1.70448E-18
 1.10160E+02 0.00000E+00 0.00000E+00 0.00000E+00 0.00000E+00 0.00000E+00 7.62339E-19 1.71076E-18
 1.10524E+02 0.00000E+00 0.00000E+00 0.00000E+00 0.00000E+00 0.00000E+00 7.69253E-19 1.72499E-18
 1.11344E+02 0.00000E+00 0.00000E+00 0.00000E+00 0.00000E+00 0.00000E+00 7.84622E-19 1.75664E-18
 1.11713E+02 0.00000E+00 0.00000E+00 0.00000E+00 0.00000E+00 0.00000E+00 7.91441E-19 1.77069E-18
 1.12541E+02 0.00000E+00 0.00000E+00 0.00000E+00 0.00000E+00 0.00000E+00 8.06596E-19 1.80191E-18
 1.12914E+02 0.00000E+00 0.00000E+00 0.00000E+00 0.00000E+00 0.00000E+00 8.13320E-19 1.81577E-18
 1.13752E+02 0.00000E+00 0.00000E+00 0.00000E+00 0.00000E+00 0.00000E+00 8.28265E-19 1.84657E-18
 1.14128E+02 0.00000E+00 0.00000E+00 0.00000E+00 0.00000E+00 0.00000E+00 8.34895E-19 1.86024E-18
 1.14975E+02 0.00000E+00 0.00000E+00 0.00000E+00 0.00000E+00 0.00000E+00 8.49633E-19 1.89063E-18
 1.15355E+02 0.00000E+00 0.00000E+00 0.00000E+00 0.00000E+00 0.00000E+00 8.56171E-19 1.90412E-18
 1.16211E+02 0.00000E+00 0.00000E+00 0.00000E+00 0.00000E+00 0.00000E+00 8.70704E-19 1.93410E-18
 1.16595E+02 0.00000E+00 0.00000E+00 0.00000E+00 0.00000E+00 0.00000E+00 8.77152E-19 1.94740E-18
 1.17460E+02 0.00000E+00 0.00000E+00 0.00000E+00 0.00000E+00 0.00000E+00 8.91483E-19 1.97697E-18
 1.17849E+02 0.00000E+00 0.00000E+00 0.00000E+00 0.00000E+00 0.00000E+00 8.97841E-19 1.99010E-18
 1.18723E+02 0.00000E+00 0.00000E+00 0.00000E+00 0.00000E+00 0.00000E+00 9.11974E-19 2.01927E-18
 1.19116E+02 0.00000E+00 0.00000E+00 0.00000E+00 0.00000E+00 0.00000E+00 9.18244E-19 2.03221E-18
 1.20000E+02 0.00000E+00 0.00000E+00 0.00000E+00 0.00000E+00 0.00000E+00 9.32180E-19 2.06099E-18
 1.20397E+02 0.00000E+00 0.00000E+00 0.00000E+00 0.00000E+00 0.00000E+00 9.38362E-19 2.07393E-18
 1.21692E+02 0.00000E+00 0.00000E+00 0.00000E+00 0.00000E+00 0.00000E+00 9.58201E-19 2.11541E-18
 1.23000E+02 0.00000E+00 0.00000E+00 0.00000E+00 0.00000E+00 0.00000E+00 9.77763E-19 2.15623E-18
 1.25000E+02 0.00000E+00 0.00000E+00 0.00000E+00 0.00000E+00 0.00000E+00 1.00716E-18 2.21657E-18
 1.27000E+02 0.00000E+00 0.00000E+00 0.00000E+00 0.00000E+00 0.00000E+00 1.03540E-18 2.27460E-18
 1.27000E+02 0.00000E+00 0.00000E+00 0.00000E+00 0.00000E+00 0.00000E+00 1.03540E-18 2.27460E-18
 1.29710E+02 0.00000E+00 0.00000E+00 0.00000E+00 0.00000E+00 3.35927E-20 1.07194E-18 2.34984E-18
 1.33450E+02 0.00000E+00 0.00000E+00 0.00000E+00 0.00000E+00 7.57635E-20 1.11945E-18 2.44792E-18
 1.36787E+02 0.00000E+00 0.00000E+00 0.00000E+00 0.00000E+00 1.09953E-19 1.15931E-18 2.53044E-18
 1.39700E+02 0.00000E+00 0.00000E+00 0.00000E+00 0.00000E+00 1.37591E-19 1.19240E-18 2.59912E-18
 1.40000E+02 0.00000E+00 0.00000E+00 0.00000E+00 0.00000E+00 1.40332E-19 1.19572E-18 2.60602E-18
 1.41202E+02 0.00000E+00 0.00000E+00 0.00000E+00 0.00000E+00 1.51133E-19 1.20889E-18 2.63340E-18
 1.42720E+02 0.00000E+00 0.00000E+00 0.00000E+00 0.00000E+00 1.64376E-19 1.22519E-18 2.66731E-18
 1.44255E+02 0.00000E+00 0.00000E+00 0.00000E+00 0.00000E+00 1.77338E-19 1.24132E-18 2.70083E-18
 1.45806E+02 0.00000E+00 0.00000E+00 0.00000E+00 0.00000E+00 1.90038E-19 1.25728E-18 2.73396E-18
 1.47374E+02 0.00000E+00 0.00000E+00 0.00000E+00 0.00000E+00 2.02492E-19 1.27306E-18 2.76670E-18
 1.48958E+02 0.00000E+00 0.00000E+00 0.00000E+00 0.00000E+00 2.14715E-19 1.28866E-18 2.79905E-18
 1.50000E+02 0.00000E+00 0.00000E+00 0.00000E+00 0.00000E+00 2.22560E-19 1.29872E-18 2.81991E-18
 1.50560E+02 0.00000E+00 0.00000E+00 0.00000E+00 0.00000E+00 2.26720E-19 1.30407E-18 2.83100E-18
 1.52179E+02 0.00000E+00 0.00000E+00 0.00000E+00 0.00000E+00 2.38522E-19 1.31930E-18 2.86254E-18
 1.53815E+02 0.00000E+00 0.00000E+00 0.00000E+00 0.00000E+00 2.50131E-19 1.33435E-18 2.89368E-18
 1.55469E+02 0.00000E+00 0.00000E+00 0.00000E+00 0.00000E+00 2.61560E-19 1.34920E-18 2.92441E-18
 1.57141E+02 0.00000E+00 0.00000E+00 0.00000E+00 0.00000E+00 2.72819E-19 1.36387E-18 2.95472E-18
 1.58830E+02 0.00000E+00 0.00000E+00 0.00000E+00 0.00000E+00 2.83916E-19 1.37833E-18 2.98462E-18
 1.60538E+02 0.00000E+00 0.00000E+00 0.00000E+00 0.00000E+00 2.94862E-19 1.39260E-18 3.01409E-18
 1.62264E+02 0.00000E+00 0.00000E+00 0.00000E+00 0.00000E+00 3.05665E-19 1.40668E-18 3.04315E-18
 1.64009E+02 0.00000E+00 0.00000E+00 0.00000E+00 0.00000E+00 3.16331E-19 1.42054E-18 3.07177E-18
 1.65773E+02 0.00000E+00 0.00000E+00 0.00000E+00 0.00000E+00 3.26867E-19 1.43421E-18 3.09996E-18
 1.67555E+02 0.00000E+00 0.00000E+00 0.00000E+00 0.00000E+00 3.37280E-19 1.44767E-18 3.12772E-18
 1.69357E+02 0.00000E+00 0.00000E+00 0.00000E+00 0.00000E+00 3.47575E-19 1.46092E-18 3.15503E-18
 1.71178E+02 0.00000E+00 0.00000E+00 0.00000E+00 0.00000E+00 3.57758E-19 1.47395E-18 3.18190E-18
 1.73018E+02 0.00000E+00 0.00000E+00 0.00000E+00 0.00000E+00 3.67833E-19 1.48677E-18 3.20831E-18
 1.75000E+02 0.00000E+00 0.00000E+00 0.00000E+00 0.00000E+00 3.78448E-19 1.50019E-18 3.23593E-18
 1.76759E+02 0.00000E+00 0.00000E+00 0.00000E+00 0.00000E+00 3.87675E-19 1.51177E-18 3.25975E-18
 1.78660E+02 0.00000E+00 0.00000E+00 0.00000E+00 0.00000E+00 3.97450E-19 1.52393E-18 3.28477E-18
 1.80581E+02 0.00000E+00 0.00000E+00 0.00000E+00 0.00000E+00 4.07130E-19 1.53587E-18 3.30931E-18
 1.82522E+02 0.00000E+00 0.00000E+00 0.00000E+00 0.00000E+00 4.16719E-19 1.54759E-18 3.33337E-18
 1.84485E+02 0.00000E+00 0.00000E+00 0.00000E+00 0.00000E+00 4.26219E-19 1.55908E-18 3.35695E-18
 1.86468E+02 0.00000E+00 0.00000E+00 0.00000E+00 0.00000E+00 4.35631E-19 1.57034E-18 3.38003E-18
 1.88473E+02 0.00000E+00 0.00000E+00 0.00000E+00 0.00000E+00 4.44958E-19 1.58137E-18 3.40261E-18
 1.90500E+02 0.00000E+00 0.00000E+00 0.00000E+00 0.00000E+00 4.54200E-19 1.59216E-18 3.42469E-18
 1.93555E+02 0.00000E+00 0.00000E+00 0.00000E+00 0.00000E+00 4.67798E-19 1.60777E-18 3.45658E-18
 1.98394E+02 0.00000E+00 0.00000E+00 0.00000E+00 0.00000E+00 4.88521E-19 1.63096E-18 3.50382E-18
 2.00000E+02 0.00000E+00 0.00000E+00 0.00000E+00 0.00000E+00 4.95188E-19 1.63825E-18 3.51863E-18
 2.04114E+02 0.00000E+00 0.00000E+00 0.00000E+00 0.00000E+00 5.11804E-19 1.65602E-18 3.55471E-18
 2.09217E+02 0.00000E+00 0.00000E+00 0.00000E+00 0.00000E+00 5.31532E-19 1.67637E-18 3.59594E-18
 2.11852E+02 0.00000E+00 0.00000E+00 0.00000E+00 0.00000E+00 5.41357E-19 1.68618E-18 3.61578E-18
 2.15250E+02 0.00000E+00 0.00000E+00 0.00000E+00 0.00000E+00 5.53673E-19 1.69818E-18 3.64000E-18
 2.20000E+02 0.00000E+00 0.00000E+00 0.00000E+00 0.00000E+00 5.70260E-19 1.71379E-18 3.67141E-18
 2.23410E+02 0.00000E+00 0.00000E+00 0.00000E+00 0.00000E+00 5.81728E-19 1.72421E-18 3.69228E-18
 2.26993E+02 0.00000E+00 0.00000E+00 0.00000E+00 0.00000E+00 5.93393E-19 1.73449E-18 3.71280E-18
 2.32667E+02 0.00000E+00 0.00000E+00 0.00000E+00 0.00000E+00 6.11092E-19 1.74947E-18 3.74250E-18
 2.35598E+02 0.00000E+00 0.00000E+00 0.00000E+00 0.00000E+00 6.19870E-19 1.75661E-18 3.75657E-18
 2.39376E+02 0.00000E+00 0.00000E+00 0.00000E+00 0.00000E+00 6.30835E-19 1.76528E-18 3.77356E-18
 2.45361E+02 0.00000E+00 0.00000E+00 0.00000E+00 0.00000E+00 6.47417E-19 1.77780E-18 3.79807E-18
 2.50000E+02 0.00000E+00 0.00000E+00 0.00000E+00 0.00000E+00 6.59632E-19 1.78659E-18 3.81528E-18
 2.52435E+02 0.00000E+00 0.00000E+00 0.00000E+00 0.00000E+00 6.65827E-19 1.79090E-18 3.82374E-18
 2.58746E+02 0.00000E+00 0.00000E+00 0.00000E+00 0.00000E+00 6.81213E-19 1.80116E-18 3.84388E-18
 2.62005E+02 0.00000E+00 0.00000E+00 0.00000E+00 0.00000E+00 6.88797E-19 1.80598E-18 3.85331E-18
 2.66207E+02 0.00000E+00 0.00000E+00 0.00000E+00 0.00000E+00 6.98231E-19 1.81173E-18 3.86449E-18
 2.72862E+02 0.00000E+00 0.00000E+00 0.00000E+00 0.00000E+00 7.12435E-19 1.81980E-18 3.88006E-18
 2.76299E+02 0.00000E+00 0.00000E+00 0.00000E+00 0.00000E+00 7.19436E-19 1.82349E-18 3.88709E-18
 2.80730E+02 0.00000E+00 0.00000E+00 0.00000E+00 0.00000E+00 7.28146E-19 1.82778E-18 3.89517E-18
 2.87748E+02 0.00000E+00 0.00000E+00 0.00000E+00 0.00000E+00 7.41260E-19 1.83355E-18 3.90577E-18
 2.91373E+02 0.00000E+00 0.00000E+00 0.00000E+00 0.00000E+00 7.47726E-19 1.83606E-18 3.91023E-18
 2.96045E+02 0.00000E+00 0.00000E+00 0.00000E+00 0.00000E+00 7.55772E-19 1.83884E-18 3.91501E-18
 3.00000E+02 0.00000E+00 0.00000E+00 0.00000E+00 0.00000E+00 7.62341E-19 1.84080E-18 3.91824E-18
 3.03446E+02 0.00000E+00 0.00000E+00 0.00000E+00 0.00000E+00 7.67892E-19 1.84223E-18 3.92046E-18
 3.07268E+02 0.00000E+00 0.00000E+00 0.00000E+00 0.00000E+00 7.73870E-19 1.84352E-18 3.92230E-18
 3.12196E+02 0.00000E+00 0.00000E+00 0.00000E+00 0.00000E+00 7.81303E-19 1.84474E-18 3.92378E-18
 3.20001E+02 0.00000E+00 0.00000E+00 0.00000E+00 0.00000E+00 7.92432E-19 1.84570E-18 3.92446E-18
 3.24031E+02 0.00000E+00 0.00000E+00 0.00000E+00 0.00000E+00 7.97861E-19 1.84579E-18 3.92423E-18
 3.29227E+02 0.00000E+00 0.00000E+00 0.00000E+00 0.00000E+00 8.04533E-19 1.84558E-18 3.92357E-18
 3.37458E+02 0.00000E+00 0.00000E+00 0.00000E+00 0.00000E+00 8.14337E-19 1.84473E-18 3.92202E-18
 3.41709E+02 0.00000E+00 0.00000E+00 0.00000E+00 0.00000E+00 8.19028E-19 1.84414E-18 3.92088E-18
 3.47188E+02 0.00000E+00 0.00000E+00 0.00000E+00 0.00000E+00 8.24698E-19 1.84330E-18 3.91869E-18
 3.50000E+02 0.00000E+00 0.00000E+00 0.00000E+00 0.00000E+00 8.27441E-19 1.84281E-18 3.91716E-18
 3.55868E+02 0.00000E+00 0.00000E+00 0.00000E+00 0.00000E+00 8.32803E-19 1.84153E-18 3.91283E-18
 3.60351E+02 0.00000E+00 0.00000E+00 0.00000E+00 0.00000E+00 8.36567E-19 1.84024E-18 3.90832E-18
 3.66129E+02 0.00000E+00 0.00000E+00 0.00000E+00 0.00000E+00 8.40995E-19 1.83805E-18 3.90105E-18
 3.75282E+02 0.00000E+00 0.00000E+00 0.00000E+00 0.00000E+00 8.47042E-19 1.83309E-18 3.88742E-18
 3.80010E+02 0.00000E+00 0.00000E+00 0.00000E+00 0.00000E+00 8.49704E-19 1.82992E-18 3.87991E-18
 3.86103E+02 0.00000E+00 0.00000E+00 0.00000E+00 0.00000E+00 8.52681E-19 1.82548E-18 3.87027E-18
 3.95756E+02 0.00000E+00 0.00000E+00 0.00000E+00 0.00000E+00 8.56455E-19 1.81814E-18 3.85536E-18
 4.00000E+02 0.00000E+00 0.00000E+00 0.00000E+00 0.00000E+00 8.57808E-19 1.81496E-18 3.84882E-18
 4.07167E+02 0.00000E+00 0.00000E+00 0.00000E+00 0.00000E+00 8.59745E-19 1.80967E-18 3.83759E-18
 4.17346E+02 0.00000E+00 0.00000E+00 0.00000E+00 0.00000E+00 8.61904E-19 1.80211E-18 3.82091E-18
 4.22603E+02 0.00000E+00 0.00000E+00 0.00000E+00 0.00000E+00 8.62815E-19 1.79812E-18 3.81182E-18
 4.29380E+02 0.00000E+00 0.00000E+00 0.00000E+00 0.00000E+00 8.63847E-19 1.79280E-18 3.79964E-18
 4.40115E+02 0.00000E+00 0.00000E+00 0.00000E+00 0.00000E+00 8.65272E-19 1.78390E-18 3.77945E-18
 4.45658E+02 0.00000E+00 0.00000E+00 0.00000E+00 0.00000E+00 8.65915E-19 1.77909E-18 3.76867E-18
 4.50000E+02 0.00000E+00 0.00000E+00 0.00000E+00 0.00000E+00 8.66361E-19 1.77524E-18 3.76010E-18
 4.64125E+02 0.00000E+00 0.00000E+00 0.00000E+00 0.00000E+00 8.67366E-19 1.76231E-18 3.73158E-18
 4.69971E+02 0.00000E+00 0.00000E+00 0.00000E+00 0.00000E+00 8.67546E-19 1.75681E-18 3.71955E-18
 4.77508E+02 0.00000E+00 0.00000E+00 0.00000E+00 0.00000E+00 8.67544E-19 1.74963E-18 3.70388E-18
 4.89445E+02 0.00000E+00 0.00000E+00 0.00000E+00 0.00000E+00 8.67051E-19 1.73809E-18 3.67870E-18
 4.95611E+02 0.00000E+00 0.00000E+00 0.00000E+00 0.00000E+00 8.66602E-19 1.73205E-18 3.66554E-18
 5.00000E+02 0.00000E+00 0.00000E+00 0.00000E+00 0.00000E+00 8.66215E-19 1.72772E-18 3.65610E-18
 5.03558E+02 0.00000E+00 0.00000E+00 0.00000E+00 0.00000E+00 8.65865E-19 1.72420E-18 3.64842E-18
 5.16147E+02 0.00000E+00 0.00000E+00 0.00000E+00 0.00000E+00 8.64411E-19 1.71163E-18 3.62099E-18
 5.22649E+02 0.00000E+00 0.00000E+00 0.00000E+00 0.00000E+00 8.63541E-19 1.70507E-18 3.60671E-18
 5.31030E+02 0.00000E+00 0.00000E+00 0.00000E+00 0.00000E+00 8.62291E-19 1.69657E-18 3.58822E-18
 5.44305E+02 0.00000E+00 0.00000E+00 0.00000E+00 0.00000E+00 8.59994E-19 1.68302E-18 3.55877E-18
 5.50000E+02 0.00000E+00 0.00000E+00 0.00000E+00 0.00000E+00 8.58883E-19 1.67718E-18 3.54611E-18
 5.60000E+02 0.00000E+00 0.00000E+00 0.00000E+00 0.00000E+00 8.56745E-19 1.66691E-18 3.52384E-18
 5.74000E+02 0.00000E+00 0.00000E+00 0.00000E+00 0.00000E+00 8.53385E-19 1.65250E-18 3.49268E-18
 5.81230E+02 0.00000E+00 0.00000E+00 0.00000E+00 0.00000E+00 8.51494E-19 1.64507E-18 3.47661E-18
 6.00000E+02 0.00000E+00 0.00000E+00 0.00000E+00 0.00000E+00 8.46160E-19 1.62580E-18 3.43505E-18
 6.12939E+02 0.00000E+00 0.00000E+00 0.00000E+00 0.00000E+00 8.42250E-19 1.61259E-18 3.40658E-18
 6.46378E+02 0.00000E+00 0.00000E+00 0.00000E+00 0.00000E+00 8.32113E-19 1.57878E-18 3.33379E-18
 6.81641E+02 0.00000E+00 0.00000E+00 0.00000E+00 0.00000E+00 8.21496E-19 1.54378E-18 3.25848E-18
 7.00000E+02 0.00000E+00 0.00000E+00 0.00000E+00 0.00000E+00 8.15365E-19 1.52586E-18 3.21995E-18
 7.18828E+02 0.00000E+00 0.00000E+00 0.00000E+00 0.00000E+00 8.08360E-19 1.50771E-18 3.18100E-18
 7.58044E+02 0.00000E+00 0.00000E+00 0.00000E+00 0.00000E+00 7.92545E-19 1.47077E-18 3.10188E-18
 8.00000E+02 0.00000E+00 0.00000E+00 0.00000E+00 0.00000E+00 7.76062E-19 1.43263E-18 3.02042E-18
 8.43010E+02 0.00000E+00 0.00000E+00 0.00000E+00 0.00000E+00 7.60065E-19 1.39509E-18 2.94028E-18
 8.89000E+02 0.00000E+00 0.00000E+00 0.00000E+00 0.00000E+00 7.43442E-19 1.35664E-18 2.85824E-18
 9.00000E+02 0.00000E+00 0.00000E+00 0.00000E+00 0.00000E+00 7.39491E-19 1.34770E-18 2.83918E-18
 9.38000E+02 0.00000E+00 0.00000E+00 0.00000E+00 0.00000E+00 7.25895E-19 1.31756E-18 2.77495E-18
 9.38000E+02 0.00000E+00 0.00000E+00 0.00000E+00 0.00000E+00 7.25895E-19 1.31756E-18 2.77495E-18
 9.58000E+02 0.00000E+00 0.00000E+00 0.00000E+00 4.36753E-21 7.18806E-19 1.30215E-18 2.74216E-18
 9.58000E+02 0.00000E+00 0.00000E+00 0.00000E+00 4.36753E-21 7.18806E-19 1.30215E-18 2.74216E-18
 1.00000E+03 0.00000E+00 0.00000E+00 4.13754E-21 1.27786E-20 7.04164E-19 1.27082E-18 2.67552E-18
 1.03180E+03 0.00000E+00 0.00000E+00 6.96846E-21 1.85232E-20 6.93364E-19 1.24800E-18 2.62703E-18
 1.04289E+03 0.00000E+00 0.00000E+00 7.89985E-21 2.04113E-20 6.89662E-19 1.24022E-18 2.61050E-18
 1.05380E+03 0.00000E+00 0.00000E+00 8.78855E-21 2.22121E-20 6.86056E-19 1.23266E-18 2.59444E-18
 1.06513E+03 0.00000E+00 0.00000E+00 9.68459E-21 2.40269E-20 6.82344E-19 1.22489E-18 2.57794E-18
 1.07658E+03 0.00000E+00 0.00000E+00 1.05629E-20 2.58050E-20 6.78628E-19 1.21713E-18 2.56147E-18
 1.08816E+03 0.00000E+00 0.00000E+00 1.14238E-20 2.75469E-20 6.74907E-19 1.20938E-18 2.54501E-18
 1.10000E+03 0.00000E+00 0.00000E+00 1.22772E-20 2.92730E-20 6.71139E-19 1.20155E-18 2.52838E-18
 1.10300E+03 0.00000E+00 0.00000E+00 1.24892E-20 2.97016E-20 6.70190E-19 1.19958E-18 2.52420E-18
 1.10300E+03 0.00000E+00 0.00000E+00 1.24892E-20 2.97016E-20 6.70190E-19 1.19958E-18 2.52420E-18
 1.11169E+03 0.00000E+00 4.29315E-22 1.30935E-20 3.09233E-20 6.67456E-19 1.19392E-18 2.51216E-18
 1.12364E+03 0.00000E+00 1.00425E-21 1.39028E-20 3.25587E-20 6.63725E-19 1.18620E-18 2.49577E-18
 1.13572E+03 0.00000E+00 1.56744E-21 1.46952E-20 3.41595E-20 6.59992E-19 1.17849E-18 2.47940E-18
 1.14793E+03 0.00000E+00 2.11919E-21 1.54711E-20 3.57260E-20 6.56257E-19 1.17079E-18 2.46306E-18
 1.16028E+03 0.00000E+00 2.65978E-21 1.62305E-20 3.72587E-20 6.52519E-19 1.16311E-18 2.44673E-18
 1.17275E+03 0.00000E+00 3.18950E-21 1.69737E-20 3.87580E-20 6.48780E-19 1.15543E-18 2.43044E-18
 1.18536E+03 0.00000E+00 3.70860E-21 1.77009E-20 4.02245E-20 6.45039E-19 1.14777E-18 2.41417E-18
 1.19811E+03 0.00000E+00 4.21736E-21 1.84122E-20 4.16585E-20 6.41297E-19 1.14012E-18 2.39792E-18
 1.21099E+03 0.00000E+00 4.71601E-21 1.91080E-20 4.30604E-20 6.37553E-19 1.13248E-18 2.38172E-18
 1.21330E+03 0.00000E+00 4.80384E-21 1.92304E-20 4.33070E-20 6.36886E-19 1.13112E-18 2.37883E-18
 1.22401E+03 0.00000E+00 5.20480E-21 1.97884E-20 4.44309E-20 6.33809E-19 1.12485E-18 2.36555E-18
 1.22635E+03 0.00000E+00 5.29090E-21 1.99081E-20 4.46719E-20 6.33141E-19 1.12350E-18 2.36268E-18
 1.23717E+03 0.00000E+00 5.68395E-21 2.04537E-20 4.57702E-20 6.30064E-19 1.11724E-18 2.34944E-18
 1.23953E+03 0.00000E+00 5.76836E-21 2.05707E-20 4.60057E-20 6.29396E-19 1.11589E-18 2.34657E-18
 1.25000E+03 0.00000E+00 6.13721E-21 2.10812E-20 4.70331E-20 6.26451E-19 1.10992E-18 2.33394E-18
 1.25286E+03 0.00000E+00 6.23646E-21 2.12183E-20 4.73091E-20 6.25650E-19 1.10830E-18 2.33051E-18
 1.26392E+03 0.00000E+00 6.61425E-21 2.17395E-20 4.83575E-20 6.22572E-19 1.10208E-18 2.31736E-18
 1.26633E+03 0.00000E+00 6.69539E-21 2.18513E-20 4.85823E-20 6.21904E-19 1.10073E-18 2.31452E-18
 1.27751E+03 0.00000E+00 7.06581E-21 2.23606E-20 4.96064E-20 6.18826E-19 1.09453E-18 2.30142E-18
 1.27995E+03 0.00000E+00 7.14537E-21 2.24698E-20 4.98259E-20 6.18158E-19 1.09318E-18 2.29859E-18
 1.29125E+03 0.00000E+00 7.50859E-21 2.29673E-20 5.08260E-20 6.15079E-19 1.08700E-18 2.28555E-18
