 PENELOPE (v. 2018)  Material data file ...............
 Material: Vacuum (low-density hydrogen)                                 
 Mass density = 1.00000000E-06 g/cm**3
 Number of elements in the molecule =  1
   atomic number =  1,  atoms/molecule = 1.00000000E+00
 Mean excitation energy = 1.92000000E+01 eV
 Number of oscillators =  1 (E/P inelastic model)
   1  1.00000000E+00  1.36000000E+01  1.92000000E+01   1  30
 Number of shells =  1 (Compton IA model)
   1  1.00000000E+00  1.36000000E+01  8.48807000E-01   1  30
 *** RELAX:  Z =  1,  no. of shells =  1,  no. of transitions =    0
   1 1s1/2 1  1.36000E+01  0.00000E+00  8.48807E-01
 *** Electron ionisation cross sections,  IZ =  1,  NSHELL =  1,  NDATA = 211
 1.00000E+01 0.00000E+00
 1.10000E+01 0.00000E+00
 1.25000E+01 0.00000E+00
 1.36000E+01 0.00000E+00
 1.36000E+01 0.00000E+00
 1.40000E+01 6.68213E-18
 1.49600E+01 2.04927E-17
 1.50000E+01 2.10082E-17
 1.51209E+01 2.25396E-17
 1.52834E+01 2.45392E-17
 1.54478E+01 2.64923E-17
 1.56139E+01 2.84001E-17
 1.57818E+01 3.02632E-17
 1.59515E+01 3.20827E-17
 1.61230E+01 3.38594E-17
 1.62963E+01 3.55942E-17
 1.64716E+01 3.72878E-17
 1.66487E+01 3.89411E-17
 1.68277E+01 4.05549E-17
 1.70086E+01 4.21299E-17
 1.71915E+01 4.36670E-17
 1.73763E+01 4.51668E-17
 1.75000E+01 4.61411E-17
 1.75632E+01 4.66301E-17
 1.77520E+01 4.80577E-17
 1.79429E+01 4.94501E-17
 1.81358E+01 5.08081E-17
 1.83308E+01 5.21323E-17
 1.85279E+01 5.34235E-17
 1.87272E+01 5.46822E-17
 1.89285E+01 5.59090E-17
 1.91320E+01 5.71046E-17
 1.93378E+01 5.82695E-17
 1.95457E+01 5.94043E-17
 1.97559E+01 6.05097E-17
 1.99683E+01 6.15861E-17
 2.00000E+01 6.17434E-17
 2.01830E+01 6.26341E-17
 2.04000E+01 6.36542E-17
 2.15129E+01 6.83199E-17
 2.20000E+01 7.01020E-17
 2.26866E+01 7.23786E-17
 2.39242E+01 7.58740E-17
 2.50000E+01 7.83735E-17
 2.52294E+01 7.88504E-17
 2.66058E+01 8.13528E-17
 2.80573E+01 8.34258E-17
 2.95879E+01 8.51035E-17
 3.00000E+01 8.54787E-17
 3.12021E+01 8.64118E-17
 3.29043E+01 8.73763E-17
 3.46994E+01 8.80222E-17
 3.50000E+01 8.80987E-17
 3.65924E+01 8.83733E-17
 3.85887E+01 8.84532E-17
 4.00000E+01 8.83651E-17
 4.06939E+01 8.82847E-17
 4.29140E+01 8.78890E-17
 4.50000E+01 8.73588E-17
 4.77241E+01 8.64921E-17
 5.00000E+01 8.56545E-17
 5.30733E+01 8.44075E-17
 5.50000E+01 8.35789E-17
 5.59687E+01 8.31526E-17
 5.90220E+01 8.17760E-17
 6.00000E+01 8.13271E-17
 6.22420E+01 8.02905E-17
 6.56376E+01 7.87170E-17
 6.92184E+01 7.70630E-17
 7.00000E+01 7.67036E-17
 7.29946E+01 7.53374E-17
 7.69769E+01 7.35585E-17
 8.00000E+01 7.22428E-17
 8.11763E+01 7.17393E-17
 8.56049E+01 6.98868E-17
 9.00000E+01 6.81176E-17
 9.52000E+01 6.61149E-17
 1.00000E+02 6.43529E-17
 1.10000E+02 6.09386E-17
 1.25000E+02 5.64146E-17
 1.40000E+02 5.25062E-17
 1.50000E+02 5.01862E-17
 1.75000E+02 4.52174E-17
 2.00000E+02 4.11550E-17
 2.20000E+02 3.84291E-17
 2.50000E+02 3.50738E-17
 3.00000E+02 3.06388E-17
 3.50000E+02 2.72262E-17
 4.00000E+02 2.45288E-17
 4.50000E+02 2.23357E-17
 5.00000E+02 2.05169E-17
 5.50000E+02 1.89870E-17
 6.00000E+02 1.76786E-17
 7.00000E+02 1.55585E-17
 8.00000E+02 1.39113E-17
 9.00000E+02 1.25956E-17
 1.00000E+03 1.15184E-17
 1.10000E+03 1.06168E-17
 1.25000E+03 9.51299E-18
 1.40000E+03 8.62911E-18
 1.50000E+03 8.12924E-18
 1.75000E+03 7.10966E-18
 2.00000E+03 6.32749E-18
 2.20000E+03 5.82130E-18
 2.50000E+03 5.20413E-18
 3.00000E+03 4.43338E-18
 3.50000E+03 3.87020E-18
 4.00000E+03 3.43989E-18
 4.50000E+03 3.09991E-18
 5.00000E+03 2.82421E-18
 5.50000E+03 2.59595E-18
 6.00000E+03 2.40370E-18
 7.00000E+03 2.09749E-18
 8.00000E+03 1.86416E-18
 9.00000E+03 1.68019E-18
 1.00000E+04 1.53128E-18
 1.10000E+04 1.40818E-18
 1.25000E+04 1.25879E-18
 1.40000E+04 1.14001E-18
 1.50000E+04 1.07343E-18
 1.75000E+04 9.38872E-19
 2.00000E+04 8.36586E-19
 2.20000E+04 7.70819E-19
 2.50000E+04 6.91124E-19
 3.00000E+04 5.92427E-19
 3.50000E+04 5.20938E-19
 4.00000E+04 4.66704E-19
 4.50000E+04 4.24118E-19
 5.00000E+04 3.89774E-19
 5.50000E+04 3.61475E-19
 6.00000E+04 3.37751E-19
 7.00000E+04 3.00190E-19
 8.00000E+04 2.71783E-19
 9.00000E+04 2.49549E-19
 1.00000E+05 2.31671E-19
 1.10000E+05 2.16988E-19
 1.25000E+05 1.99310E-19
 1.40000E+05 1.85387E-19
 1.50000E+05 1.77642E-19
 1.75000E+05 1.62158E-19
 2.00000E+05 1.50575E-19
 2.20000E+05 1.43237E-19
 2.50000E+05 1.34487E-19
 3.00000E+05 1.23941E-19
 3.50000E+05 1.16576E-19
 4.00000E+05 1.11201E-19
 4.50000E+05 1.07149E-19
 5.00000E+05 1.04019E-19
 5.50000E+05 1.01555E-19
 6.00000E+05 9.95853E-20
 7.00000E+05 9.66928E-20
 8.00000E+05 9.47394E-20
 9.00000E+05 9.33937E-20
 1.00000E+06 9.24584E-20
 1.10000E+06 9.18103E-20
 1.25000E+06 9.12068E-20
 1.40000E+06 9.08999E-20
 1.50000E+06 9.08076E-20
 1.75000E+06 9.08318E-20
 2.00000E+06 9.10800E-20
 2.20000E+06 9.13685E-20
 2.50000E+06 9.18840E-20
 3.00000E+06 9.28356E-20
 3.50000E+06 9.38051E-20
 4.00000E+06 9.47454E-20
 4.50000E+06 9.56399E-20
 5.00000E+06 9.64849E-20
 5.50000E+06 9.72788E-20
 6.00000E+06 9.80276E-20
 7.00000E+06 9.93999E-20
 8.00000E+06 1.00629E-19
 9.00000E+06 1.01739E-19
 1.00000E+07 1.02750E-19
 1.10000E+07 1.03676E-19
 1.25000E+07 1.04932E-19
 1.40000E+07 1.06060E-19
 1.50000E+07 1.06750E-19
 1.75000E+07 1.08309E-19
 2.00000E+07 1.09668E-19
 2.20000E+07 1.10645E-19
 2.50000E+07 1.11961E-19
 3.00000E+07 1.13848E-19
 3.50000E+07 1.15451E-19
 4.00000E+07 1.16843E-19
 4.50000E+07 1.18076E-19
 5.00000E+07 1.19177E-19
 5.50000E+07 1.20178E-19
 6.00000E+07 1.21092E-19
 7.00000E+07 1.22713E-19
 8.00000E+07 1.24118E-19
 9.00000E+07 1.25363E-19
 1.00000E+08 1.26473E-19
 1.10000E+08 1.27479E-19
 1.25000E+08 1.28831E-19
 1.40000E+08 1.30030E-19
 1.50000E+08 1.30756E-19
 1.75000E+08 1.32387E-19
 2.00000E+08 1.33800E-19
 2.20000E+08 1.34813E-19
 2.50000E+08 1.36166E-19
 3.00000E+08 1.38097E-19
 3.50000E+08 1.39732E-19
 4.00000E+08 1.41149E-19
 4.50000E+08 1.42399E-19
 5.00000E+08 1.43517E-19
 5.50000E+08 1.44528E-19
 6.00000E+08 1.45451E-19
 7.00000E+08 1.47087E-19
 8.00000E+08 1.48504E-19
 9.00000E+08 1.49754E-19
 1.00000E+09 1.50873E-19
 *** Positron ionisation cross sections,  IZ =  1,  NSHELL =  1,  NDATA = 210
 1.00000E+01 0.00000E+00
 1.10000E+01 0.00000E+00
 1.25000E+01 0.00000E+00
 1.36000E+01 0.00000E+00
 1.36000E+01 0.00000E+00
 1.40000E+01 8.57618E-23
 1.50000E+01 4.09598E-21
 1.63200E+01 5.37551E-20
 1.64461E+01 6.44877E-20
 1.65731E+01 7.68752E-20
 1.67011E+01 9.10988E-20
 1.68301E+01 1.07351E-19
 1.69601E+01 1.25835E-19
 1.70911E+01 1.46766E-19
 1.72231E+01 1.70368E-19
 1.73562E+01 1.96877E-19
 1.75000E+01 2.28821E-19
 1.76253E+01 2.59612E-19
 1.77615E+01 2.96359E-19
 1.78987E+01 3.37053E-19
 1.80369E+01 3.81979E-19
 1.81763E+01 4.31427E-19
 1.83166E+01 4.85693E-19
 1.84581E+01 5.45082E-19
 1.86007E+01 6.09904E-19
 1.87444E+01 6.80473E-19
 1.88892E+01 7.57109E-19
 1.90351E+01 8.40133E-19
 1.91821E+01 9.29870E-19
 1.93303E+01 1.02665E-18
 1.94796E+01 1.13079E-18
 1.96301E+01 1.24262E-18
 1.97817E+01 1.36248E-18
 1.99345E+01 1.49067E-18
 2.00000E+01 1.54795E-18
 2.00885E+01 1.62753E-18
 2.02436E+01 1.77336E-18
 2.04000E+01 1.92847E-18
 2.15129E+01 3.52662E-18
 2.20000E+01 4.43800E-18
 2.26866E+01 5.93478E-18
 2.39242E+01 9.14482E-18
 2.50000E+01 1.23056E-17
 2.52294E+01 1.30106E-17
 2.66058E+01 1.73944E-17
 2.80573E+01 2.22352E-17
 2.95879E+01 2.74552E-17
 3.00000E+01 2.88563E-17
 3.12021E+01 3.28906E-17
 3.29043E+01 3.83907E-17
 3.46994E+01 4.38270E-17
 3.50000E+01 4.46942E-17
 3.65924E+01 4.90652E-17
 3.85887E+01 5.40009E-17
 4.00000E+01 5.71273E-17
 4.06939E+01 5.85549E-17
 4.29140E+01 6.26520E-17
 4.50000E+01 6.58910E-17
 4.77241E+01 6.93395E-17
 5.00000E+01 7.16285E-17
 5.30733E+01 7.39854E-17
 5.50000E+01 7.50995E-17
 5.59687E+01 7.55680E-17
 5.90220E+01 7.66859E-17
 6.00000E+01 7.69397E-17
 6.22420E+01 7.73587E-17
 6.56376E+01 7.76317E-17
 6.92184E+01 7.75411E-17
 7.00000E+01 7.74786E-17
 7.29946E+01 7.71221E-17
 7.69769E+01 7.64145E-17
 8.00000E+01 7.57420E-17
 8.11763E+01 7.54552E-17
 8.56049E+01 7.42771E-17
 9.00000E+01 7.29942E-17
 9.52000E+01 7.13875E-17
 1.00000E+02 6.98615E-17
 1.10000E+02 6.66725E-17
 1.25000E+02 6.20861E-17
 1.40000E+02 5.78834E-17
 1.50000E+02 5.53463E-17
 1.75000E+02 4.97637E-17
 2.00000E+02 4.51356E-17
 2.20000E+02 4.19802E-17
 2.50000E+02 3.79155E-17
 3.00000E+02 3.27110E-17
 3.50000E+02 2.88051E-17
 4.00000E+02 2.57738E-17
 4.50000E+02 2.33436E-17
 5.00000E+02 2.13503E-17
 5.50000E+02 1.96882E-17
 6.00000E+02 1.82771E-17
 7.00000E+02 1.60101E-17
 8.00000E+02 1.42646E-17
 9.00000E+02 1.28800E-17
 1.00000E+03 1.17525E-17
 1.10000E+03 1.08130E-17
 1.25000E+03 9.66768E-18
 1.40000E+03 8.75440E-18
 1.50000E+03 8.23941E-18
 1.75000E+03 7.19225E-18
 2.00000E+03 6.39181E-18
 2.20000E+03 5.87510E-18
 2.50000E+03 5.24646E-18
 3.00000E+03 4.46343E-18
 3.50000E+03 3.89269E-18
 4.00000E+03 3.45738E-18
 4.50000E+03 3.11392E-18
 5.00000E+03 2.83570E-18
 5.50000E+03 2.60554E-18
 6.00000E+03 2.41185E-18
 7.00000E+03 2.10359E-18
 8.00000E+03 1.86889E-18
 9.00000E+03 1.68399E-18
 1.00000E+04 1.53440E-18
 1.10000E+04 1.41079E-18
 1.25000E+04 1.26084E-18
 1.40000E+04 1.14167E-18
 1.50000E+04 1.07489E-18
 1.75000E+04 9.39963E-19
 2.00000E+04 8.37436E-19
 2.20000E+04 7.71532E-19
 2.50000E+04 6.91686E-19
 3.00000E+04 5.92829E-19
 3.50000E+04 5.21241E-19
 4.00000E+04 4.66942E-19
 4.50000E+04 4.24310E-19
 5.00000E+04 3.89932E-19
 5.50000E+04 3.61609E-19
 6.00000E+04 3.37866E-19
 7.00000E+04 3.00277E-19
 8.00000E+04 2.71853E-19
 9.00000E+04 2.49605E-19
 1.00000E+05 2.31719E-19
 1.10000E+05 2.17028E-19
 1.25000E+05 1.99342E-19
 1.40000E+05 1.85414E-19
 1.50000E+05 1.77666E-19
 1.75000E+05 1.62177E-19
 2.00000E+05 1.50590E-19
 2.20000E+05 1.43250E-19
 2.50000E+05 1.34497E-19
 3.00000E+05 1.23949E-19
 3.50000E+05 1.16583E-19
 4.00000E+05 1.11206E-19
 4.50000E+05 1.07154E-19
 5.00000E+05 1.04023E-19
 5.50000E+05 1.01558E-19
 6.00000E+05 9.95886E-20
 7.00000E+05 9.66956E-20
 8.00000E+05 9.47418E-20
 9.00000E+05 9.33958E-20
 1.00000E+06 9.24603E-20
 1.10000E+06 9.18120E-20
 1.25000E+06 9.12082E-20
 1.40000E+06 9.09012E-20
 1.50000E+06 9.08088E-20
 1.75000E+06 9.08329E-20
 2.00000E+06 9.10809E-20
 2.20000E+06 9.13694E-20
 2.50000E+06 9.18847E-20
 3.00000E+06 9.28362E-20
 3.50000E+06 9.38057E-20
 4.00000E+06 9.47459E-20
 4.50000E+06 9.56404E-20
 5.00000E+06 9.64853E-20
 5.50000E+06 9.72791E-20
 6.00000E+06 9.80279E-20
 7.00000E+06 9.94002E-20
 8.00000E+06 1.00629E-19
 9.00000E+06 1.01740E-19
 1.00000E+07 1.02750E-19
 1.10000E+07 1.03676E-19
 1.25000E+07 1.04932E-19
 1.40000E+07 1.06060E-19
 1.50000E+07 1.06750E-19
 1.75000E+07 1.08309E-19
 2.00000E+07 1.09668E-19
 2.20000E+07 1.10645E-19
 2.50000E+07 1.11961E-19
 3.00000E+07 1.13848E-19
 3.50000E+07 1.15451E-19
 4.00000E+07 1.16843E-19
 4.50000E+07 1.18076E-19
 5.00000E+07 1.19177E-19
 5.50000E+07 1.20179E-19
 6.00000E+07 1.21092E-19
 7.00000E+07 1.22713E-19
 8.00000E+07 1.24118E-19
 9.00000E+07 1.25363E-19
 1.00000E+08 1.26473E-19
 1.10000E+08 1.27479E-19
 1.25000E+08 1.28831E-19
 1.40000E+08 1.30030E-19
 1.50000E+08 1.30756E-19
 1.75000E+08 1.32387E-19
 2.00000E+08 1.33800E-19
 2.20000E+08 1.34813E-19
 2.50000E+08 1.36166E-19
 3.00000E+08 1.38097E-19
 3.50000E+08 1.39732E-19
 4.00000E+08 1.41149E-19
 4.50000E+08 1.42399E-19
 5.00000E+08 1.43517E-19
 5.50000E+08 1.44528E-19
 6.00000E+08 1.45451E-19
 7.00000E+08 1.47087E-19
 8.00000E+08 1.48504E-19
 9.00000E+08 1.49754E-19
 1.00000E+09 1.50873E-19
 *** Electron scaled bremss x-section,  ZEQ = 1.00000E+00,  NDATA =  57
 1.00E+03 7.85334E+00 7.84912E+00 7.83335E+00 7.79761E+00 7.74606E+00
          7.61418E+00 7.44655E+00 7.25299E+00 7.03989E+00 6.81488E+00
          6.58634E+00 6.35599E+00 6.12426E+00 5.89281E+00 5.66436E+00
          5.44266E+00 5.22961E+00 5.02811E+00 4.84146E+00 4.67203E+00
          4.52134E+00 4.45446E+00 4.40021E+00 4.37237E+00 4.36158E+00
          4.36356E+00 4.36401E+00 4.36380E+00 4.36480E+00 4.36561E+00
          4.36616E+00 4.36003E+00                                     5.295E+00
 1.50E+03 8.38576E+00 8.39987E+00 8.39234E+00 8.34741E+00 8.27285E+00
          8.07209E+00 7.81902E+00 7.54268E+00 7.25307E+00 6.95806E+00
          6.66596E+00 6.37702E+00 6.09008E+00 5.80617E+00 5.52725E+00
          5.25637E+00 4.99335E+00 4.73724E+00 4.48663E+00 4.23911E+00
          4.00442E+00 3.90467E+00 3.82845E+00 3.79041E+00 3.75431E+00
          3.74322E+00 3.74090E+00 3.74146E+00 3.73965E+00 3.73803E+00
          3.73690E+00 3.75631E+00                                     5.288E+00
 2.00E+03 8.80526E+00 8.81669E+00 8.80073E+00 8.73757E+00 8.63763E+00
          8.37702E+00 8.05880E+00 7.72172E+00 7.37747E+00 7.03397E+00
          6.69911E+00 6.37252E+00 6.05209E+00 5.73859E+00 5.43146E+00
          5.13206E+00 4.83926E+00 4.55065E+00 4.26310E+00 3.97229E+00
          3.68230E+00 3.54817E+00 3.43719E+00 3.37441E+00 3.32561E+00
          3.31226E+00 3.30777E+00 3.30808E+00 3.30605E+00 3.30451E+00
          3.30309E+00 3.32006E+00                                     5.284E+00
 3.00E+03 9.44600E+00 9.43512E+00 9.39015E+00 9.28674E+00 9.13951E+00
          8.78051E+00 8.36495E+00 7.94108E+00 7.52137E+00 7.11310E+00
          6.72271E+00 6.34879E+00 5.98782E+00 5.64047E+00 5.30155E+00
          4.96932E+00 4.64185E+00 4.31577E+00 3.98667E+00 3.64818E+00
          3.29135E+00 3.10911E+00 2.94425E+00 2.83789E+00 2.76376E+00
          2.74739E+00 2.73735E+00 2.73658E+00 2.73486E+00 2.73395E+00
          2.73313E+00 2.73938E+00                                     5.285E+00
 4.00E+03 9.93053E+00 9.89328E+00 9.81770E+00 9.67677E+00 9.48862E+00
          9.05078E+00 8.56262E+00 8.07703E+00 7.60593E+00 7.15500E+00
          6.72891E+00 6.32488E+00 5.93897E+00 5.57159E+00 5.21427E+00
          4.86307E+00 4.51571E+00 4.16850E+00 3.81645E+00 3.45172E+00
          3.05681E+00 2.84598E+00 2.64692E+00 2.50946E+00 2.40908E+00
          2.38778E+00 2.37170E+00 2.36985E+00 2.36816E+00 2.36771E+00
          2.36749E+00 2.36713E+00                                     5.293E+00
 5.00E+03 1.03158E+01 1.02536E+01 1.01499E+01 9.97556E+00 9.75207E+00
          9.24877E+00 8.70278E+00 8.16974E+00 7.66060E+00 7.17886E+00
          6.72734E+00 6.30179E+00 5.89851E+00 5.51715E+00 5.14751E+00
          4.78383E+00 4.42361E+00 4.06297E+00 3.69643E+00 3.31515E+00
          2.89639E+00 2.66772E+00 2.44604E+00 2.28597E+00 2.16135E+00
          2.13439E+00 2.11252E+00 2.10974E+00 2.10784E+00 2.10762E+00
          2.10768E+00 2.10398E+00                                     5.302E+00
 6.00E+03 1.06375E+01 1.05528E+01 1.04238E+01 1.02199E+01 9.96542E+00
          9.40603E+00 8.81184E+00 8.24040E+00 7.70144E+00 7.19605E+00
          6.72492E+00 6.28285E+00 5.86631E+00 5.47392E+00 5.09511E+00
          4.72241E+00 4.35314E+00 3.98318E+00 3.60668E+00 3.21394E+00
          2.77927E+00 2.53900E+00 2.30161E+00 2.12433E+00 1.97778E+00
          1.94505E+00 1.91791E+00 1.91434E+00 1.91209E+00 1.91196E+00
          1.91201E+00 1.90713E+00                                     5.313E+00
 8.00E+03 1.11506E+01 1.10282E+01 1.08567E+01 1.06029E+01 1.02964E+01
          9.64456E+00 8.97288E+00 8.34194E+00 7.75834E+00 7.21858E+00
          6.71882E+00 6.25237E+00 5.81606E+00 5.40653E+00 5.01459E+00
          4.62969E+00 4.24873E+00 3.86703E+00 3.47794E+00 3.07060E+00
          2.61747E+00 2.36463E+00 2.10759E+00 1.90554E+00 1.72118E+00
          1.67751E+00 1.64134E+00 1.63653E+00 1.63343E+00 1.63325E+00
          1.63320E+00 1.62926E+00                                     5.336E+00
 1.00E+04 1.15502E+01 1.13963E+01 1.11894E+01 1.08941E+01 1.05448E+01
          9.81862E+00 9.08639E+00 8.41085E+00 7.79476E+00 7.23064E+00
          6.71090E+00 6.22610E+00 5.77542E+00 5.35285E+00 4.95192E+00
          4.55924E+00 4.17135E+00 3.78287E+00 3.38646E+00 2.97063E+00
          2.50847E+00 2.25018E+00 1.98171E+00 1.76237E+00 1.54759E+00
          1.49460E+00 1.45114E+00 1.44539E+00 1.44147E+00 1.44110E+00
          1.44093E+00 1.43863E+00                                     5.357E+00
 1.50E+04 1.22904E+01 1.20686E+01 1.17875E+01 1.14083E+01 1.09747E+01
          1.01095E+01 9.26891E+00 8.51652E+00 7.84602E+00 7.24093E+00
          6.68827E+00 6.16921E+00 5.69514E+00 5.24953E+00 4.83521E+00
          4.43222E+00 4.03593E+00 3.63938E+00 3.23411E+00 2.80872E+00
          2.34014E+00 2.07867E+00 1.79532E+00 1.54850E+00 1.28185E+00
          1.21227E+00 1.15592E+00 1.14855E+00 1.14308E+00 1.14234E+00
          1.14184E+00 1.14276E+00                                     5.402E+00
 2.00E+04 1.30659E+01 1.26106E+01 1.21323E+01 1.16197E+01 1.11090E+01
          1.01976E+01 9.37021E+00 8.61265E+00 7.91572E+00 7.27205E+00
          6.67482E+00 6.11701E+00 5.61725E+00 5.15488E+00 4.73453E+00
          4.32917E+00 3.93309E+00 3.54056E+00 3.14142E+00 2.71566E+00
          2.23956E+00 1.97456E+00 1.68372E+00 1.42457E+00 1.12872E+00
          1.04470E+00 9.81028E-01 9.73697E-01 9.66757E-01 9.65732E-01
          9.64840E-01 9.66793E-01                                     5.432E+00
 3.00E+04 1.38303E+01 1.32815E+01 1.27079E+01 1.20989E+01 1.14989E+01
          1.04510E+01 9.51861E+00 8.67680E+00 7.91437E+00 7.22437E+00
          6.57989E+00 5.99851E+00 5.48723E+00 5.01588E+00 4.59179E+00
          4.18805E+00 3.79186E+00 3.39834E+00 2.99892E+00 2.57698E+00
          2.10892E+00 1.84570E+00 1.54915E+00 1.27594E+00 9.46977E-01
          8.48712E-01 7.76065E-01 7.67766E-01 7.59646E-01 7.58443E-01
          7.57313E-01 7.58511E-01                                     5.485E+00
 4.00E+04 1.44079E+01 1.37748E+01 1.31189E+01 1.24317E+01 1.17627E+01
          1.06108E+01 9.59982E+00 8.69733E+00 7.88706E+00 7.16026E+00
          6.48759E+00 5.88780E+00 5.37278E+00 4.89781E+00 4.46934E+00
          4.07037E+00 3.67752E+00 3.28658E+00 2.89026E+00 2.47453E+00
          2.01625E+00 1.75709E+00 1.46059E+00 1.18202E+00 8.36842E-01
          7.31767E-01 6.54570E-01 6.45681E-01 6.37071E-01 6.35879E-01
          6.34754E-01 6.34859E-01                                     5.524E+00
 5.00E+04 1.49009E+01 1.41669E+01 1.34183E+01 1.26534E+01 1.19221E+01
          1.06853E+01 9.62052E+00 8.68691E+00 7.85781E+00 7.11127E+00
          6.42638E+00 5.81562E+00 5.29533E+00 4.81184E+00 4.37040E+00
          3.97032E+00 3.57488E+00 3.17848E+00 2.77710E+00 2.37004E+00
          1.93969E+00 1.69470E+00 1.40114E+00 1.11250E+00 7.54398E-01
          6.54194E-01 5.72411E-01 5.61991E-01 5.53661E-01 5.52670E-01
          5.51767E-01 5.50818E-01                                     5.554E+00
 6.00E+04 1.53496E+01 1.45184E+01 1.36823E+01 1.28468E+01 1.20611E+01
          1.07491E+01 9.63531E+00 8.67282E+00 7.82623E+00 7.05710E+00
          6.35527E+00 5.73632E+00 5.20725E+00 4.71456E+00 4.26135E+00
          3.86249E+00 3.47426E+00 3.08985E+00 2.70357E+00 2.30668E+00
          1.87654E+00 1.62988E+00 1.33729E+00 1.05337E+00 7.00406E-01
          5.96354E-01 5.09431E-01 4.99102E-01 4.92692E-01 4.91963E-01
          4.90383E-01 4.88916E-01                                     5.581E+00
 8.00E+04 1.61967E+01 1.51669E+01 1.41563E+01 1.31881E+01 1.23034E+01
          1.08518E+01 9.64731E+00 8.62741E+00 7.74508E+00 6.94376E+00
          6.21359E+00 5.59470E+00 5.06017E+00 4.56217E+00 4.09765E+00
          3.69808E+00 3.31843E+00 2.93813E+00 2.55310E+00 2.16638E+00
          1.76284E+00 1.53302E+00 1.25403E+00 9.71890E-01 6.08834E-01
          5.08225E-01 4.24796E-01 4.13916E-01 4.05676E-01 4.04859E-01
          4.04194E-01 4.02096E-01                                     5.637E+00
 1.00E+05 1.69387E+01 1.57181E+01 1.45465E+01 1.34682E+01 1.25093E+01
          1.09529E+01 9.68494E+00 8.61514E+00 7.68848E+00 6.85844E+00
          6.10662E+00 5.48109E+00 4.93708E+00 4.42710E+00 3.95023E+00
          3.54432E+00 3.17882E+00 2.81212E+00 2.43754E+00 2.05951E+00
          1.66944E+00 1.45014E+00 1.17963E+00 9.03057E-01 5.47522E-01
          4.48339E-01 3.64815E-01 3.53595E-01 3.45876E-01 3.45205E-01
          3.44558E-01 3.42719E-01                                     5.699E+00
 1.50E+05 1.87350E+01 1.69940E+01 1.54005E+01 1.40657E+01 1.29562E+01
          1.11852E+01 9.79830E+00 8.62786E+00 7.59177E+00 6.68522E+00
          5.91756E+00 5.27540E+00 4.71606E+00 4.19255E+00 3.69863E+00
          3.26125E+00 2.90120E+00 2.55311E+00 2.20080E+00 1.84921E+00
          1.49029E+00 1.28881E+00 1.03865E+00 7.80338E-01 4.44443E-01
          3.49965E-01 2.70396E-01 2.59736E-01 2.52166E-01 2.51334E-01
          2.50370E-01 2.50568E-01                                     5.878E+00
 2.00E+05 2.03089E+01 1.81674E+01 1.62472E+01 1.47080E+01 1.34644E+01
          1.14468E+01 9.87302E+00 8.59459E+00 7.50918E+00 6.57403E+00
          5.80825E+00 5.16677E+00 4.59565E+00 4.05987E+00 3.54926E+00
          3.08108E+00 2.69364E+00 2.35523E+00 2.02255E+00 1.69657E+00
          1.36186E+00 1.17132E+00 9.37555E-01 6.97446E-01 3.80304E-01
          2.89041E-01 2.15108E-01 2.05578E-01 1.97887E-01 1.96622E-01
          1.95777E-01 1.97334E-01                                     6.085E+00
 3.00E+05 2.32533E+01 2.01503E+01 1.74933E+01 1.55908E+01 1.42019E+01
          1.19566E+01 1.02039E+01 8.74262E+00 7.55427E+00 6.56076E+00
          5.74597E+00 5.07165E+00 4.47259E+00 3.91493E+00 3.38834E+00
          2.89798E+00 2.46775E+00 2.12386E+00 1.80797E+00 1.50077E+00
          1.19408E+00 1.02364E+00 8.12423E-01 5.93208E-01 3.05608E-01
          2.24424E-01 1.56579E-01 1.47500E-01 1.40610E-01 1.39631E-01
          1.38402E-01 1.40615E-01                                     6.543E+00
 4.00E+05 2.57404E+01 2.18821E+01 1.86522E+01 1.64758E+01 1.49667E+01
          1.24537E+01 1.05270E+01 8.91947E+00 7.65852E+00 6.65036E+00
          5.81644E+00 5.10952E+00 4.48268E+00 3.90510E+00 3.36215E+00
          2.85182E+00 2.38852E+00 2.00384E+00 1.69556E+00 1.39279E+00
          1.09618E+00 9.41835E-01 7.45772E-01 5.38058E-01 2.66754E-01
          1.90403E-01 1.27372E-01 1.19002E-01 1.12402E-01 1.11443E-01
          1.10651E-01 1.11651E-01                                     7.038E+00
 5.00E+05 2.78949E+01 2.33901E+01 1.96766E+01 1.72822E+01 1.56807E+01
          1.29138E+01 1.08441E+01 9.14684E+00 7.83027E+00 6.79844E+00
          5.94509E+00 5.20918E+00 4.55506E+00 3.95795E+00 3.39949E+00
          2.87273E+00 2.38563E+00 1.96218E+00 1.63380E+00 1.33547E+00
          1.04519E+00 8.95619E-01 7.06197E-01 5.05397E-01 2.44189E-01
          1.71642E-01 1.10565E-01 1.02355E-01 9.61356E-02 9.53859E-02
          9.47360E-02 9.44648E-02                                     7.539E+00
 6.00E+05 2.97993E+01 2.47269E+01 2.05922E+01 1.80140E+01 1.63365E+01
          1.33356E+01 1.11355E+01 9.39075E+00 8.04124E+00 6.98269E+00
          6.10438E+00 5.34148E+00 4.66234E+00 4.04597E+00 3.47220E+00
          2.93058E+00 2.42433E+00 1.96991E+00 1.60529E+00 1.30767E+00
          1.01950E+00 8.71510E-01 6.84596E-01 4.86823E-01 2.30842E-01
          1.60204E-01 9.98865E-02 9.17468E-02 8.57770E-02 8.51764E-02
          8.46681E-02 8.34627E-02                                     8.032E+00
 8.00E+05 3.29947E+01 2.69878E+01 2.21578E+01 1.92736E+01 1.74707E+01
          1.40964E+01 1.16795E+01 9.88099E+00 8.49896E+00 7.39572E+00
          6.46645E+00 5.65513E+00 4.93374E+00 4.28212E+00 3.67853E+00
          3.10898E+00 2.57046E+00 2.06951E+00 1.63367E+00 1.30430E+00
          1.01233E+00 8.62575E-01 6.74108E-01 4.75442E-01 2.19126E-01
          1.48297E-01 8.75785E-02 7.94386E-02 7.36187E-02 7.31570E-02
          7.27526E-02 7.10436E-02                                     8.976E+00
 1.00E+06 3.55686E+01 2.88329E+01 2.34549E+01 2.03179E+01 1.84070E+01
          1.47639E+01 1.22127E+01 1.03679E+01 8.96038E+00 7.82101E+00
          6.84937E+00 5.99803E+00 5.24160E+00 4.55862E+00 3.92664E+00
          3.33027E+00 2.76288E+00 2.22436E+00 1.73219E+00 1.33977E+00
          1.03787E+00 8.82869E-01 6.88113E-01 4.83116E-01 2.17757E-01
          1.43785E-01 8.12927E-02 7.30224E-02 6.70722E-02 6.65801E-02
          6.62253E-02 6.49131E-02                                     9.858E+00
 1.50E+06 4.02421E+01 3.22279E+01 2.58796E+01 2.22774E+01 2.01600E+01
          1.61047E+01 1.34878E+01 1.15457E+01 1.00515E+01 8.82280E+00
          7.76973E+00 6.84470E+00 6.01875E+00 5.26838E+00 4.57321E+00
          3.91730E+00 3.28853E+00 2.67670E+00 2.08454E+00 1.54680E+00
          1.15412E+00 9.79664E-01 7.60054E-01 5.29378E-01 2.30116E-01
          1.45867E-01 7.64522E-02 6.74055E-02 6.03681E-02 5.95385E-02
          5.88985E-02 5.89805E-02                                     1.179E+01
 2.00E+06 4.34085E+01 3.45384E+01 2.75479E+01 2.36558E+01 2.14385E+01
          1.72142E+01 1.46078E+01 1.26030E+01 1.10293E+01 9.72132E+00
          8.60263E+00 7.62110E+00 6.74177E+00 5.93866E+00 5.19293E+00
          4.48808E+00 3.80823E+00 3.13713E+00 2.47114E+00 1.83666E+00
          1.30539E+00 1.09708E+00 8.45971E-01 5.87021E-01 2.50014E-01
          1.55902E-01 7.83461E-02 6.79092E-02 5.90519E-02 5.77835E-02
          5.63717E-02 5.72640E-02                                     1.341E+01
 3.00E+06 4.73685E+01 3.74465E+01 2.96894E+01 2.55050E+01 2.32741E+01
          1.90642E+01 1.63734E+01 1.42814E+01 1.26216E+01 1.12309E+01
          1.00272E+01 8.95976E+00 7.99792E+00 7.11626E+00 6.29275E+00
          5.50839E+00 4.74647E+00 3.98932E+00 3.22417E+00 2.45197E+00
          1.69312E+00 1.34615E+00 1.02385E+00 7.02778E-01 2.98030E-01
          1.84314E-01 8.72037E-02 7.38677E-02 6.12415E-02 5.85332E-02
          5.60324E-02 5.57770E-02                                     1.599E+01
 4.00E+06 4.98645E+01 3.91620E+01 3.08792E+01 2.65904E+01 2.44895E+01
          2.04864E+01 1.77799E+01 1.56417E+01 1.39158E+01 1.24546E+01
          1.11812E+01 1.00476E+01 9.02382E+00 8.08414E+00 7.20547E+00
          6.36783E+00 5.55390E+00 4.74480E+00 3.91856E+00 3.04872E+00
          2.11533E+00 1.63427E+00 1.18998E+00 8.15437E-01 3.48698E-01
          2.15636E-01 9.95567E-02 8.22938E-02 6.49309E-02 6.13807E-02
          5.64584E-02 5.48645E-02                                     1.798E+01
 5.00E+06 5.13172E+01 4.01358E+01 3.15876E+01 2.73786E+01 2.55054E+01
          2.17135E+01 1.89994E+01 1.67886E+01 1.49648E+01 1.34087E+01
          1.20639E+01 1.08829E+01 9.82988E+00 8.87235E+00 7.97849E+00
          7.12162E+00 6.28187E+00 5.43646E+00 4.55558E+00 3.59639E+00
          2.51527E+00 1.92816E+00 1.34604E+00 9.27465E-01 4.01624E-01
          2.47702E-01 1.12294E-01 9.14192E-02 6.91145E-02 6.42331E-02
          5.73851E-02 5.42411E-02                                     1.958E+01
 6.00E+06 5.25375E+01 4.08589E+01 3.20323E+01 2.78953E+01 2.62283E+01
          2.25626E+01 1.98796E+01 1.76641E+01 1.58216E+01 1.42389E+01
          1.28638E+01 1.16510E+01 1.05662E+01 9.57785E+00 8.65483E+00
          7.77006E+00 6.90195E+00 6.02466E+00 5.10297E+00 4.08309E+00
          2.89996E+00 2.23125E+00 1.53448E+00 1.03365E+00 4.52425E-01
          2.79950E-01 1.25462E-01 1.00795E-01 7.33194E-02 6.70603E-02
          5.82725E-02 5.37642E-02                                     2.089E+01
 8.00E+06 5.42070E+01 4.17873E+01 3.25801E+01 2.86348E+01 2.73493E+01
          2.38625E+01 2.12529E+01 1.90492E+01 1.71914E+01 1.55779E+01
          1.41651E+01 1.29111E+01 1.17843E+01 1.07547E+01 9.79190E+00
          8.86859E+00 7.96066E+00 7.03793E+00 6.05712E+00 4.94796E+00
          3.61128E+00 2.81707E+00 1.93121E+00 1.23609E+00 5.52186E-01
          3.44391E-01 1.52138E-01 1.19664E-01 8.15496E-02 7.25700E-02
          5.99742E-02 5.32901E-02                                     2.299E+01
 1.00E+07 5.52353E+01 4.23421E+01 3.29099E+01 2.91330E+01 2.81384E+01
          2.48002E+01 2.22647E+01 2.00893E+01 1.82347E+01 1.66101E+01
          1.51788E+01 1.39025E+01 1.27519E+01 1.16980E+01 1.07117E+01
          9.76509E+00 8.83252E+00 7.88090E+00 6.86141E+00 5.69195E+00
          4.24707E+00 3.36137E+00 2.33175E+00 1.44289E+00 6.47678E-01
          4.07168E-01 1.78388E-01 1.38056E-01 8.92639E-02 7.76401E-02
          6.14651E-02 5.29198E-02                                     2.461E+01
 1.50E+07 5.65945E+01 4.31306E+01 3.34443E+01 2.99161E+01 2.93391E+01
          2.63162E+01 2.39403E+01 2.18552E+01 2.00406E+01 1.84271E+01
          1.69887E+01 1.56953E+01 1.45227E+01 1.34451E+01 1.24343E+01
          1.14624E+01 1.05018E+01 9.51501E+00 8.44479E+00 7.19041E+00
          5.58035E+00 4.54614E+00 3.26877E+00 2.04791E+00 8.66398E-01
          5.54003E-01 2.40248E-01 1.80791E-01 1.06345E-01 8.86130E-02
          6.45111E-02 5.26098E-02                                     2.750E+01
 2.00E+07 5.72933E+01 4.35499E+01 3.37473E+01 3.03632E+01 3.00250E+01
          2.72348E+01 2.49850E+01 2.29856E+01 2.12226E+01 1.96401E+01
          1.82178E+01 1.69315E+01 1.57606E+01 1.46820E+01 1.36694E+01
          1.26956E+01 1.17321E+01 1.07391E+01 9.65357E+00 8.36031E+00
          6.65398E+00 5.52436E+00 4.08128E+00 2.62486E+00 1.06261E+00
          6.92650E-01 2.97354E-01 2.19275E-01 1.20874E-01 9.76927E-02
          6.68412E-02 5.24962E-02                                     2.948E+01
 3.00E+07 5.80466E+01 4.39572E+01 3.40121E+01 3.08108E+01 3.07719E+01
          2.82746E+01 2.62029E+01 2.43409E+01 2.26785E+01 2.11733E+01
          1.98097E+01 1.85681E+01 1.74312E+01 1.63788E+01 1.53859E+01
          1.44266E+01 1.34738E+01 1.24873E+01 1.13998E+01 1.00843E+01
          8.29981E+00 7.07857E+00 5.45552E+00 3.69718E+00 1.39838E+00
