 PENELOPE (v. 2018)  Material data file ...............
 Material: Air-GeantIV                                                   
 Mass density = 1.29000000E-03 g/cm**3
 Number of elements in the molecule =  2
   atomic number =  7,  atoms/molecule = 1.00000000E+00
   atomic number =  8,  atoms/molecule = 3.75210951E-01
 Mean excitation energy = 8.57026650E+01 eV
 Number of oscillators =  6 (E/P inelastic model)
   1  1.50084380E+00  1.36200000E+01  2.82994450E+01   8  30
   2  3.00000000E+00  1.45300000E+01  3.01907105E+01   7  30
   3  2.00000000E+00  2.03300000E+01  4.22415274E+01   7  30
   4  7.50421901E-01  2.84800000E+01  5.91745814E+01   8  30
   5  2.00000000E+00  4.03000000E+02  8.37333789E+02   7   1
   6  7.50421901E-01  5.38000000E+02  1.11783018E+03   8   1
 Number of shells =  6 (Compton IA model)
   1  1.50084380E+00  1.36200000E+01  3.49645500E-01   8  30
   2  3.00000000E+00  1.45300000E+01  4.07021000E-01   7  30
   3  2.00000000E+00  2.03300000E+01  6.71894000E-01   7  30
   4  7.50421901E-01  2.84800000E+01  5.77977000E-01   8  30
   5  2.00000000E+00  4.03000000E+02  1.30137000E-01   7   1
   6  7.50421901E-01  5.38000000E+02  1.13183000E-01   8   1
 *** RELAX:  Z =  7,  no. of shells =  4,  no. of transitions =    8
   1 1s1/2 2  4.03000E+02  9.27355E-02  1.30137E-01
   2 2s1/2 2  2.03300E+01  0.00000E+00  6.71894E-01
   3 2p1/2 2  1.45300E+01  0.00000E+00  4.06903E-01
   4 2p3/2 1  1.45300E+01  0.00000E+00  4.07257E-01
   1  3  0  1.09420E-03  3.92400E+02
   1  4  0  2.18181E-03  3.92400E+02
   1  2  2  2.65388E-01  3.58650E+02
   1  2  3  1.29999E-01  3.70250E+02
   1  2  4  2.58276E-01  3.70270E+02
   1  3  3  8.15943E-03  3.81850E+02
   1  3  4  2.12711E-01  3.81870E+02
   1  4  4  1.22190E-01  3.81890E+02
 *** RELAX:  Z =  8,  no. of shells =  4,  no. of transitions =    8
   1 1s1/2 2  5.38000E+02  1.33383E-01  1.13183E-01
   2 2s1/2 2  2.84800E+01  0.00000E+00  5.77977E-01
   3 2p1/2 2  1.36200E+01  0.00000E+00  3.49407E-01
   4 2p3/2 2  1.36200E+01  0.00000E+00  3.49884E-01
   1  3  0  1.90768E-03  5.24900E+02
   1  4  0  3.80027E-03  5.24900E+02
   1  2  2  1.78644E-01  4.78820E+02
   1  2  3  1.16224E-01  4.93860E+02
   1  2  4  2.30418E-01  4.93900E+02
   1  3  3  1.10822E-02  5.08900E+02
   1  3  4  2.91115E-01  5.08940E+02
   1  4  4  1.66809E-01  5.08980E+02
 *** Electron ionisation cross sections,  IZ =  7,  NSHELL =  1,  NDATA = 199
 4.00000E+01 0.00000E+00
 4.50000E+01 0.00000E+00
 5.00000E+01 0.00000E+00
 5.50000E+01 0.00000E+00
 6.00000E+01 0.00000E+00
 7.00000E+01 0.00000E+00
 8.00000E+01 0.00000E+00
 9.00000E+01 0.00000E+00
 1.00000E+02 0.00000E+00
 1.10000E+02 0.00000E+00
 1.25000E+02 0.00000E+00
 1.40000E+02 0.00000E+00
 1.50000E+02 0.00000E+00
 1.75000E+02 0.00000E+00
 2.00000E+02 0.00000E+00
 2.20000E+02 0.00000E+00
 2.50000E+02 0.00000E+00
 3.00000E+02 0.00000E+00
 3.50000E+02 0.00000E+00
 4.00000E+02 0.00000E+00
 4.03000E+02 0.00000E+00
 4.03000E+02 0.00000E+00
 4.07030E+02 3.41635E-21
 4.12619E+02 8.04622E-21
 4.18285E+02 1.26145E-20
 4.24029E+02 1.71206E-20
 4.29852E+02 2.15642E-20
 4.35755E+02 2.59448E-20
 4.41738E+02 3.02621E-20
 4.47804E+02 3.45159E-20
 4.50000E+02 3.60261E-20
 4.53953E+02 3.87060E-20
 4.60187E+02 4.28324E-20
 4.66506E+02 4.68949E-20
 4.72912E+02 5.08937E-20
 4.79406E+02 5.48286E-20
 4.85989E+02 5.86999E-20
 4.92663E+02 6.25077E-20
 5.00000E+02 6.65635E-20
 5.06286E+02 6.99334E-20
 5.13238E+02 7.35518E-20
 5.20286E+02 7.71075E-20
 5.27431E+02 8.06009E-20
 5.34673E+02 8.40323E-20
 5.42015E+02 8.74020E-20
 5.50000E+02 9.09471E-20
 5.57003E+02 9.39577E-20
 5.64652E+02 9.71445E-20
 5.72406E+02 1.00271E-19
 5.80266E+02 1.03338E-19
 5.88234E+02 1.06345E-19
 5.96312E+02 1.09294E-19
 6.00000E+02 1.10607E-19
 6.04500E+02 1.12183E-19
 6.37478E+02 1.22867E-19
 6.72256E+02 1.32734E-19
 7.00000E+02 1.39707E-19
 7.08931E+02 1.41799E-19
 7.47607E+02 1.50075E-19
 7.88392E+02 1.57579E-19
 8.00000E+02 1.59510E-19
 8.31403E+02 1.64325E-19
 8.76760E+02 1.70332E-19
 9.00000E+02 1.73027E-19
 9.24592E+02 1.75624E-19
 9.75033E+02 1.80222E-19
 1.00000E+03 1.82173E-19
 1.02823E+03 1.84147E-19
 1.08432E+03 1.87416E-19
 1.10000E+03 1.88189E-19
 1.14348E+03 1.90044E-19
 1.20586E+03 1.92056E-19
 1.25000E+03 1.93094E-19
 1.27164E+03 1.93501E-19
 1.34102E+03 1.94406E-19
 1.40000E+03 1.94756E-19
 1.41418E+03 1.94789E-19
 1.50000E+03 1.94636E-19
 1.57269E+03 1.94105E-19
 1.65848E+03 1.93109E-19
 1.75000E+03 1.91695E-19
 1.84438E+03 1.89942E-19
 1.94500E+03 1.87852E-19
 2.00000E+03 1.86636E-19
 2.05110E+03 1.85467E-19
 2.16300E+03 1.82805E-19
 2.20000E+03 1.81902E-19
 2.28101E+03 1.79900E-19
 2.40545E+03 1.76784E-19
 2.50000E+03 1.74404E-19
 2.53667E+03 1.73482E-19
 2.67506E+03 1.70020E-19
 2.82100E+03 1.66419E-19
 3.00000E+03 1.62106E-19
 3.50000E+03 1.50824E-19
 4.00000E+03 1.40820E-19
 4.50000E+03 1.31984E-19
 5.00000E+03 1.24186E-19
 5.50000E+03 1.17290E-19
 6.00000E+03 1.11130E-19
 7.00000E+03 1.00813E-19
 8.00000E+03 9.24323E-20
 9.00000E+03 8.54453E-20
 1.00000E+04 7.94898E-20
 1.10000E+04 7.43912E-20
 1.25000E+04 6.79747E-20
 1.40000E+04 6.26738E-20
 1.50000E+04 5.96256E-20
 1.75000E+04 5.32927E-20
 2.00000E+04 4.83167E-20
 2.20000E+04 4.50378E-20
 2.50000E+04 4.09745E-20
 3.00000E+04 3.58148E-20
 3.50000E+04 3.19672E-20
 4.00000E+04 2.89966E-20
 4.50000E+04 2.66219E-20
 5.00000E+04 2.46768E-20
 5.50000E+04 2.30586E-20
 6.00000E+04 2.16898E-20
 7.00000E+04 1.94971E-20
 8.00000E+04 1.78157E-20
 9.00000E+04 1.64842E-20
 1.00000E+05 1.54062E-20
 1.10000E+05 1.45163E-20
 1.25000E+05 1.34375E-20
 1.40000E+05 1.25798E-20
 1.50000E+05 1.21006E-20
 1.75000E+05 1.11308E-20
 2.00000E+05 1.04106E-20
 2.20000E+05 9.95361E-21
 2.50000E+05 9.40884E-21
 3.00000E+05 8.75422E-21
 3.50000E+05 8.30066E-21
 4.00000E+05 7.97364E-21
 4.50000E+05 7.73115E-21
 5.00000E+05 7.54764E-21
 5.50000E+05 7.40674E-21
 6.00000E+05 7.29751E-21
 7.00000E+05 7.14577E-21
 8.00000E+05 7.05357E-21
 9.00000E+05 6.99948E-21
 1.00000E+06 6.97080E-21
 1.10000E+06 6.95952E-21
 1.25000E+06 6.96436E-21
 1.40000E+06 6.98602E-21
 1.50000E+06 7.00651E-21
 1.75000E+06 7.07019E-21
 2.00000E+06 7.14335E-21
 2.20000E+06 7.20452E-21
 2.50000E+06 7.29693E-21
 3.00000E+06 7.44679E-21
 3.50000E+06 7.58729E-21
 4.00000E+06 7.71762E-21
 4.50000E+06 7.83816E-21
 5.00000E+06 7.95005E-21
 5.50000E+06 8.05400E-21
 6.00000E+06 8.15093E-21
 7.00000E+06 8.32700E-21
 8.00000E+06 8.48318E-21
 9.00000E+06 8.62331E-21
 1.00000E+07 8.75040E-21
 1.10000E+07 8.86650E-21
 1.25000E+07 9.02375E-21
 1.40000E+07 9.16431E-21
 1.50000E+07 9.25050E-21
 1.75000E+07 9.44424E-21
 2.00000E+07 9.61316E-21
 2.20000E+07 9.73427E-21
 2.50000E+07 9.89741E-21
 3.00000E+07 1.01311E-20
 3.50000E+07 1.03295E-20
 4.00000E+07 1.05020E-20
 4.50000E+07 1.06544E-20
 5.00000E+07 1.07910E-20
 5.50000E+07 1.09148E-20
 6.00000E+07 1.10276E-20
 7.00000E+07 1.12282E-20
 8.00000E+07 1.14021E-20
 9.00000E+07 1.15558E-20
 1.00000E+08 1.16933E-20
 1.10000E+08 1.18175E-20
 1.25000E+08 1.19846E-20
 1.40000E+08 1.21328E-20
 1.50000E+08 1.22230E-20
 1.75000E+08 1.24245E-20
 2.00000E+08 1.25993E-20
 2.20000E+08 1.27241E-20
 2.50000E+08 1.28917E-20
 3.00000E+08 1.31307E-20
 3.50000E+08 1.33325E-20
 4.00000E+08 1.35079E-20
 4.50000E+08 1.36623E-20
 5.00000E+08 1.38004E-20
 5.50000E+08 1.39253E-20
 6.00000E+08 1.40394E-20
 7.00000E+08 1.42415E-20
 8.00000E+08 1.44166E-20
 9.00000E+08 1.45711E-20
 1.00000E+09 1.47093E-20
 *** Electron ionisation cross sections,  IZ =  8,  NSHELL =  1,  NDATA = 198
 4.00000E+01 0.00000E+00
 4.50000E+01 0.00000E+00
 5.00000E+01 0.00000E+00
 5.50000E+01 0.00000E+00
 6.00000E+01 0.00000E+00
 7.00000E+01 0.00000E+00
 8.00000E+01 0.00000E+00
 9.00000E+01 0.00000E+00
 1.00000E+02 0.00000E+00
 1.10000E+02 0.00000E+00
 1.25000E+02 0.00000E+00
 1.40000E+02 0.00000E+00
 1.50000E+02 0.00000E+00
 1.75000E+02 0.00000E+00
 2.00000E+02 0.00000E+00
 2.20000E+02 0.00000E+00
 2.50000E+02 0.00000E+00
 3.00000E+02 0.00000E+00
 3.50000E+02 0.00000E+00
 4.00000E+02 0.00000E+00
 4.50000E+02 0.00000E+00
 5.00000E+02 0.00000E+00
 5.38000E+02 0.00000E+00
 5.38000E+02 0.00000E+00
 5.43380E+02 1.97422E-21
 5.50000E+02 4.35048E-21
 5.58406E+02 7.28580E-21
 5.66074E+02 9.88597E-21
 5.73847E+02 1.24488E-20
 5.81727E+02 1.49742E-20
 5.89715E+02 1.74619E-20
 5.97813E+02 1.99120E-20
 6.00000E+02 2.05617E-20
 6.06022E+02 2.23245E-20
 6.14344E+02 2.46993E-20
 6.22780E+02 2.70364E-20
 6.31332E+02 2.93359E-20
 6.40001E+02 3.15980E-20
 6.48790E+02 3.38226E-20
 6.57699E+02 3.60100E-20
 6.66730E+02 3.81603E-20
 6.75886E+02 4.02736E-20
 6.85167E+02 4.23502E-20
 6.94575E+02 4.43902E-20
 7.00000E+02 4.55375E-20
 7.04113E+02 4.63938E-20
 7.13782E+02 4.83613E-20
 7.23584E+02 5.02928E-20
 7.33520E+02 5.21887E-20
 7.43592E+02 5.40491E-20
 7.53803E+02 5.58743E-20
 7.64154E+02 5.76646E-20
 7.74648E+02 5.94202E-20
 7.85285E+02 6.11413E-20
 7.96068E+02 6.28283E-20
 8.00000E+02 6.34293E-20
 8.07000E+02 6.44814E-20
 8.51026E+02 7.05767E-20
 9.00000E+02 7.64739E-20
 9.46414E+02 8.13315E-20
 1.00000E+03 8.61847E-20
 1.05249E+03 9.02660E-20
 1.10000E+03 9.34647E-20
 1.10991E+03 9.40787E-20
 1.17046E+03 9.74700E-20
 1.23432E+03 1.00452E-19
 1.25000E+03 1.01101E-19
 1.30166E+03 1.03035E-19
 1.37267E+03 1.05233E-19
 1.40000E+03 1.05953E-19
 1.44755E+03 1.07056E-19
 1.50000E+03 1.08073E-19
 1.52653E+03 1.08516E-19
 1.60980E+03 1.09629E-19
 1.69763E+03 1.10415E-19
 1.75000E+03 1.10724E-19
 1.79024E+03 1.10891E-19
 1.88791E+03 1.11071E-19
 2.00000E+03 1.10948E-19
 2.09952E+03 1.10604E-19
 2.20000E+03 1.10085E-19
 2.33484E+03 1.09178E-19
 2.46222E+03 1.08146E-19
 2.50000E+03 1.07816E-19
 2.59655E+03 1.06933E-19
 2.73820E+03 1.05549E-19
 2.88758E+03 1.04008E-19
 3.00000E+03 1.02815E-19
 3.04511E+03 1.02332E-19
 3.21124E+03 1.00540E-19
 3.38643E+03 9.86453E-20
 3.50000E+03 9.74226E-20
 3.57117E+03 9.66608E-20
 3.76600E+03 9.46008E-20
 4.00000E+03 9.21882E-20
 4.50000E+03 8.73034E-20
 5.00000E+03 8.28284E-20
 5.50000E+03 7.87584E-20
 6.00000E+03 7.50510E-20
 7.00000E+03 6.86150E-20
 8.00000E+03 6.32125E-20
 9.00000E+03 5.86933E-20
 1.00000E+04 5.48868E-20
 1.10000E+04 5.15640E-20
 1.25000E+04 4.73353E-20
 1.40000E+04 4.38049E-20
 1.50000E+04 4.17647E-20
 1.75000E+04 3.74867E-20
 2.00000E+04 3.40910E-20
 2.20000E+04 3.18419E-20
 2.50000E+04 2.90436E-20
 3.00000E+04 2.54602E-20
 3.50000E+04 2.27788E-20
 4.00000E+04 2.06974E-20
 4.50000E+04 1.90268E-20
 5.00000E+04 1.76591E-20
 5.50000E+04 1.65209E-20
 6.00000E+04 1.55532E-20
 7.00000E+04 1.39971E-20
 8.00000E+04 1.28052E-20
 9.00000E+04 1.18608E-20
 1.00000E+05 1.10945E-20
 1.10000E+05 1.04571E-20
 1.25000E+05 9.68744E-21
 1.40000E+05 9.07701E-21
 1.50000E+05 8.73564E-21
 1.75000E+05 8.04989E-21
 2.00000E+05 7.53462E-21
 2.20000E+05 7.20753E-21
 2.50000E+05 6.81757E-21
 3.00000E+05 6.34889E-21
 3.50000E+05 6.02438E-21
 4.00000E+05 5.79073E-21
 4.50000E+05 5.61772E-21
 5.00000E+05 5.48707E-21
 5.50000E+05 5.38702E-21
 6.00000E+05 5.30971E-21
 7.00000E+05 5.20297E-21
 8.00000E+05 5.13895E-21
 9.00000E+05 5.10228E-21
 1.00000E+06 5.08379E-21
 1.10000E+06 5.07774E-21
 1.25000E+06 5.08416E-21
 1.40000E+06 5.10252E-21
 1.50000E+06 5.11902E-21
 1.75000E+06 5.16899E-21
 2.00000E+06 5.22541E-21
 2.20000E+06 5.27226E-21
 2.50000E+06 5.34260E-21
 3.00000E+06 5.45630E-21
 3.50000E+06 5.56257E-21
 4.00000E+06 5.66090E-21
 4.50000E+06 5.75177E-21
 5.00000E+06 5.83593E-21
 5.50000E+06 5.91425E-21
 6.00000E+06 5.98717E-21
 7.00000E+06 6.11960E-21
 8.00000E+06 6.23706E-21
 9.00000E+06 6.34221E-21
 1.00000E+07 6.43776E-21
 1.10000E+07 6.52504E-21
 1.25000E+07 6.64307E-21
 1.40000E+07 6.74867E-21
 1.50000E+07 6.81339E-21
 1.75000E+07 6.95882E-21
 2.00000E+07 7.08560E-21
 2.20000E+07 7.17654E-21
 2.50000E+07 7.29924E-21
 3.00000E+07 7.47458E-21
 3.50000E+07 7.62350E-21
 4.00000E+07 7.75302E-21
 4.50000E+07 7.86733E-21
 5.00000E+07 7.96988E-21
 5.50000E+07 8.06287E-21
 6.00000E+07 8.14747E-21
 7.00000E+07 8.29800E-21
 8.00000E+07 8.42870E-21
 9.00000E+07 8.54374E-21
 1.00000E+08 8.64703E-21
 1.10000E+08 8.74033E-21
 1.25000E+08 8.86581E-21
 1.40000E+08 8.97692E-21
 1.50000E+08 9.04467E-21
 1.75000E+08 9.19597E-21
 2.00000E+08 9.32723E-21
 2.20000E+08 9.42123E-21
 2.50000E+08 9.54650E-21
 3.00000E+08 9.72613E-21
 3.50000E+08 9.87748E-21
 4.00000E+08 1.00091E-20
 4.50000E+08 1.01249E-20
 5.00000E+08 1.02286E-20
 5.50000E+08 1.03224E-20
 6.00000E+08 1.04080E-20
 7.00000E+08 1.05597E-20
 8.00000E+08 1.06911E-20
 9.00000E+08 1.08071E-20
 1.00000E+09 1.09108E-20
 *** Positron ionisation cross sections,  IZ =  7,  NSHELL =  1,  NDATA = 200
 4.00000E+01 0.00000E+00
 4.50000E+01 0.00000E+00
 5.00000E+01 0.00000E+00
 5.50000E+01 0.00000E+00
 6.00000E+01 0.00000E+00
 7.00000E+01 0.00000E+00
 8.00000E+01 0.00000E+00
 9.00000E+01 0.00000E+00
 1.00000E+02 0.00000E+00
 1.10000E+02 0.00000E+00
 1.25000E+02 0.00000E+00
 1.40000E+02 0.00000E+00
 1.50000E+02 0.00000E+00
 1.75000E+02 0.00000E+00
 2.00000E+02 0.00000E+00
 2.20000E+02 0.00000E+00
 2.50000E+02 0.00000E+00
 3.00000E+02 0.00000E+00
 3.50000E+02 0.00000E+00
 4.00000E+02 0.00000E+00
 4.03000E+02 0.00000E+00
 4.03000E+02 0.00000E+00
 4.23150E+02 4.84654E-23
 4.28387E+02 7.97922E-23
 4.33688E+02 1.23182E-22
 4.39055E+02 1.81196E-22
 4.44488E+02 2.56558E-22
 4.50000E+02 3.52349E-22
 4.55557E+02 4.70882E-22
 4.61195E+02 6.15854E-22
 4.66902E+02 7.90134E-22
 4.72680E+02 9.96825E-22
 4.78530E+02 1.23902E-21
 4.84451E+02 1.51976E-21
 4.90447E+02 1.84203E-21
 4.96516E+02 2.20872E-21
 5.00000E+02 2.43808E-21
 5.02660E+02 2.62263E-21
 5.08881E+02 3.08639E-21
 5.15178E+02 3.60251E-21
 5.21554E+02 4.17332E-21
 5.28008E+02 4.80099E-21
 5.34542E+02 5.48748E-21
 5.41157E+02 6.23456E-21
 5.47854E+02 7.04380E-21
 5.50000E+02 7.31429E-21
 5.54634E+02 7.91654E-21
 5.61497E+02 8.85390E-21
 5.68446E+02 9.85682E-21
 5.75480E+02 1.09260E-20
 5.82602E+02 1.20618E-20
 5.89812E+02 1.32646E-20
 5.97111E+02 1.45344E-20
 6.00000E+02 1.50511E-20
 6.04500E+02 1.58711E-20
 6.37478E+02 2.22146E-20
 6.72256E+02 2.98270E-20
 7.00000E+02 3.63332E-20
 7.08931E+02 3.84748E-20
 7.47607E+02 4.78760E-20
 7.88392E+02 5.78174E-20
 8.00000E+02 6.06284E-20
 8.31403E+02 6.81710E-20
 8.76760E+02 7.87966E-20
 9.00000E+02 8.40677E-20
 9.24592E+02 8.94949E-20
 9.75033E+02 1.00106E-19
 1.00000E+03 1.05091E-19
 1.02823E+03 1.10500E-19
 1.08432E+03 1.20507E-19
 1.10000E+03 1.23124E-19
 1.14348E+03 1.29971E-19
 1.20586E+03 1.38782E-19
 1.25000E+03 1.44341E-19
 1.27164E+03 1.46873E-19
 1.34102E+03 1.54176E-19
 1.40000E+03 1.59480E-19
 1.41418E+03 1.60641E-19
 1.50000E+03 1.66809E-19
 1.57269E+03 1.71005E-19
 1.65848E+03 1.74892E-19
 1.75000E+03 1.77955E-19
 1.84438E+03 1.80157E-19
 1.94500E+03 1.81624E-19
 2.00000E+03 1.82100E-19
 2.05110E+03 1.82360E-19
 2.16300E+03 1.82414E-19
 2.20000E+03 1.82302E-19
 2.28101E+03 1.81872E-19
 2.40545E+03 1.80775E-19
 2.50000E+03 1.79629E-19
 2.53667E+03 1.79123E-19
 2.67506E+03 1.76976E-19
 2.82100E+03 1.74417E-19
 3.00000E+03 1.71036E-19
 3.50000E+03 1.61035E-19
 4.00000E+03 1.51134E-19
 4.50000E+03 1.41880E-19
 5.00000E+03 1.33455E-19
 5.50000E+03 1.25902E-19
 6.00000E+03 1.19199E-19
 7.00000E+03 1.07444E-19
 8.00000E+03 9.77262E-20
 9.00000E+03 8.97996E-20
 1.00000E+04 8.31375E-20
 1.10000E+04 7.74962E-20
 1.25000E+04 7.04726E-20
 1.40000E+04 6.47308E-20
 1.50000E+04 6.14525E-20
 1.75000E+04 5.46929E-20
 2.00000E+04 4.94278E-20
 2.20000E+04 4.59796E-20
 2.50000E+04 4.17287E-20
 3.00000E+04 3.63643E-20
 3.50000E+04 3.23877E-20
 4.00000E+04 2.93304E-20
 4.50000E+04 2.68944E-20
 5.00000E+04 2.49041E-20
 5.50000E+04 2.32517E-20
 6.00000E+04 2.18564E-20
 7.00000E+04 1.96254E-20
 8.00000E+04 1.79183E-20
 9.00000E+04 1.65686E-20
 1.00000E+05 1.54772E-20
 1.10000E+05 1.45771E-20
 1.25000E+05 1.34870E-20
 1.40000E+05 1.26213E-20
 1.50000E+05 1.21378E-20
 1.75000E+05 1.11601E-20
 2.00000E+05 1.04346E-20
 2.20000E+05 9.97446E-21
 2.50000E+05 9.42618E-21
 3.00000E+05 8.76767E-21
 3.50000E+05 8.31159E-21
 4.00000E+05 7.98283E-21
 4.50000E+05 7.73906E-21
 5.00000E+05 7.55460E-21
 5.50000E+05 7.41294E-21
 6.00000E+05 7.30312E-21
 7.00000E+05 7.15047E-21
 8.00000E+05 7.05763E-21
 9.00000E+05 7.00306E-21
 1.00000E+06 6.97401E-21
 1.10000E+06 6.96243E-21
 1.25000E+06 6.96693E-21
 1.40000E+06 6.98832E-21
 1.50000E+06 7.00866E-21
 1.75000E+06 7.07205E-21
 2.00000E+06 7.14500E-21
 2.20000E+06 7.20603E-21
 2.50000E+06 7.29827E-21
 3.00000E+06 7.44794E-21
 3.50000E+06 7.58829E-21
 4.00000E+06 7.71851E-21
 4.50000E+06 7.83896E-21
 5.00000E+06 7.95078E-21
 5.50000E+06 8.05468E-21
 6.00000E+06 8.15156E-21
 7.00000E+06 8.32755E-21
 8.00000E+06 8.48367E-21
 9.00000E+06 8.62375E-21
 1.00000E+07 8.75081E-21
 1.10000E+07 8.86687E-21
 1.25000E+07 9.02409E-21
 1.40000E+07 9.16461E-21
 1.50000E+07 9.25079E-21
 1.75000E+07 9.44449E-21
 2.00000E+07 9.61339E-21
 2.20000E+07 9.73447E-21
 2.50000E+07 9.89759E-21
 3.00000E+07 1.01313E-20
 3.50000E+07 1.03297E-20
 4.00000E+07 1.05021E-20
 4.50000E+07 1.06545E-20
 5.00000E+07 1.07911E-20
 5.50000E+07 1.09149E-20
 6.00000E+07 1.10277E-20
 7.00000E+07 1.12283E-20
 8.00000E+07 1.14022E-20
 9.00000E+07 1.15558E-20
 1.00000E+08 1.16933E-20
 1.10000E+08 1.18175E-20
 1.25000E+08 1.19846E-20
 1.40000E+08 1.21329E-20
 1.50000E+08 1.22230E-20
 1.75000E+08 1.24245E-20
 2.00000E+08 1.25993E-20
 2.20000E+08 1.27241E-20
 2.50000E+08 1.28918E-20
 3.00000E+08 1.31307E-20
 3.50000E+08 1.33325E-20
 4.00000E+08 1.35079E-20
 4.50000E+08 1.36623E-20
 5.00000E+08 1.38004E-20
 5.50000E+08 1.39254E-20
 6.00000E+08 1.40394E-20
 7.00000E+08 1.42416E-20
 8.00000E+08 1.44167E-20
 9.00000E+08 1.45711E-20
 1.00000E+09 1.47093E-20
 *** Positron ionisation cross sections,  IZ =  8,  NSHELL =  1,  NDATA = 198
 4.00000E+01 0.00000E+00
 4.50000E+01 0.00000E+00
 5.00000E+01 0.00000E+00
 5.50000E+01 0.00000E+00
 6.00000E+01 0.00000E+00
 7.00000E+01 0.00000E+00
 8.00000E+01 0.00000E+00
 9.00000E+01 0.00000E+00
 1.00000E+02 0.00000E+00
 1.10000E+02 0.00000E+00
 1.25000E+02 0.00000E+00
 1.40000E+02 0.00000E+00
 1.50000E+02 0.00000E+00
 1.75000E+02 0.00000E+00
 2.00000E+02 0.00000E+00
 2.20000E+02 0.00000E+00
 2.50000E+02 0.00000E+00
 3.00000E+02 0.00000E+00
 3.50000E+02 0.00000E+00
 4.00000E+02 0.00000E+00
 4.50000E+02 0.00000E+00
 5.00000E+02 0.00000E+00
 5.38000E+02 0.00000E+00
 5.38000E+02 0.00000E+00
 5.50000E+02 8.48401E-24
 5.64900E+02 3.49092E-23
 5.71891E+02 5.60188E-23
 5.78968E+02 8.46080E-23
 5.86133E+02 1.22128E-22
 5.93386E+02 1.70112E-22
 6.00000E+02 2.23647E-22
 6.08163E+02 3.03927E-22
 6.15689E+02 3.93096E-22
 6.23309E+02 4.99378E-22
 6.31022E+02 6.24484E-22
 6.38831E+02 7.70119E-22
 6.46737E+02 9.37962E-22
 6.54740E+02 1.12966E-21
 6.62843E+02 1.34679E-21
 6.71045E+02 1.59091E-21
 6.79350E+02 1.86347E-21
 6.87757E+02 2.16585E-21
 6.96268E+02 2.49935E-21
 7.00000E+02 2.65433E-21
 7.04884E+02 2.86517E-21
 7.13607E+02 3.26440E-21
 7.22438E+02 3.69803E-21
 7.31378E+02 4.16694E-21
 7.40429E+02 4.67188E-21
 7.49592E+02 5.21351E-21
 7.58868E+02 5.79234E-21
 7.68259E+02 6.40877E-21
 7.77766E+02 7.06310E-21
 7.87391E+02 7.75547E-21
 7.97135E+02 8.48594E-21
 8.00000E+02 8.70616E-21
 8.07000E+02 9.25443E-21
 8.51026E+02 1.29095E-20
 9.00000E+02 1.75200E-20
 9.46414E+02 2.22084E-20
 1.00000E+03 2.77801E-20
 1.05249E+03 3.32529E-20
 1.10000E+03 3.81518E-20
 1.10991E+03 3.91637E-20
 1.17046E+03 4.52219E-20
 1.23432E+03 5.13168E-20
 1.25000E+03 5.27606E-20
 1.30166E+03 5.73627E-20
 1.37267E+03 6.32868E-20
 1.40000E+03 6.54340E-20
 1.44755E+03 6.89866E-20
 1.50000E+03 7.26319E-20
 1.52653E+03 7.43670E-20
 1.60980E+03 7.93660E-20
 1.69763E+03 8.39623E-20
 1.75000E+03 8.63923E-20
 1.79024E+03 8.81083E-20
 1.88791E+03 9.17586E-20
 2.00000E+03 9.51501E-20
 2.09952E+03 9.75589E-20
 2.20000E+03 9.94990E-20
 2.33484E+03 1.01432E-19
 2.46222E+03 1.02663E-19
 2.50000E+03 1.02936E-19
 2.59655E+03 1.03465E-19
 2.73820E+03 1.03854E-19
 2.88758E+03 1.03850E-19
 3.00000E+03 1.03625E-19
 3.04511E+03 1.03490E-19
 3.21124E+03 1.02808E-19
 3.38643E+03 1.01837E-19
 3.50000E+03 1.01101E-19
 3.57117E+03 1.00607E-19
 3.76600E+03 9.91478E-20
 4.00000E+03 9.72531E-20
 4.50000E+03 9.29767E-20
 5.00000E+03 8.86638E-20
 5.50000E+03 8.45019E-20
 6.00000E+03 8.06109E-20
 7.00000E+03 7.36336E-20
 8.00000E+03 6.77490E-20
 9.00000E+03 6.26544E-20
 1.00000E+04 5.81898E-20
 1.10000E+04 5.43937E-20
 1.25000E+04 4.96212E-20
 1.40000E+04 4.56949E-20
 1.50000E+04 4.34470E-20
 1.75000E+04 3.87817E-20
 2.00000E+04 3.51220E-20
 2.20000E+04 3.27175E-20
 2.50000E+04 2.97466E-20
 3.00000E+04 2.59740E-20
 3.50000E+04 2.31730E-20
 4.00000E+04 2.10108E-20
 4.50000E+04 1.92830E-20
 5.00000E+04 1.78731E-20
 5.50000E+04 1.67029E-20
 6.00000E+04 1.57103E-20
 7.00000E+04 1.41183E-20
 8.00000E+04 1.29023E-20
 9.00000E+04 1.19407E-20
 1.00000E+05 1.11618E-20
 1.10000E+05 1.05147E-20
 1.25000E+05 9.73444E-21
 1.40000E+05 9.11632E-21
 1.50000E+05 8.77096E-21
 1.75000E+05 8.07778E-21
 2.00000E+05 7.55747E-21
 2.20000E+05 7.22740E-21
 2.50000E+05 6.83411E-21
 3.00000E+05 6.36173E-21
 3.50000E+05 6.03482E-21
 4.00000E+05 5.79951E-21
 4.50000E+05 5.62530E-21
 5.00000E+05 5.49373E-21
 5.50000E+05 5.39296E-21
 6.00000E+05 5.31507E-21
 7.00000E+05 5.20747E-21
 8.00000E+05 5.14284E-21
 9.00000E+05 5.10572E-21
 1.00000E+06 5.08688E-21
 1.10000E+06 5.08054E-21
 1.25000E+06 5.08663E-21
 1.40000E+06 5.10473E-21
 1.50000E+06 5.12109E-21
 1.75000E+06 5.17078E-21
 2.00000E+06 5.22700E-21
 2.20000E+06 5.27372E-21
 2.50000E+06 5.34390E-21
 3.00000E+06 5.45740E-21
 3.50000E+06 5.56354E-21
 4.00000E+06 5.66176E-21
 4.50000E+06 5.75255E-21
 5.00000E+06 5.83664E-21
 5.50000E+06 5.91490E-21
 6.00000E+06 5.98777E-21
 7.00000E+06 6.12013E-21
 8.00000E+06 6.23753E-21
 9.00000E+06 6.34263E-21
 1.00000E+07 6.43815E-21
 1.10000E+07 6.52540E-21
 1.25000E+07 6.64339E-21
 1.40000E+07 6.74896E-21
 1.50000E+07 6.81367E-21
 1.75000E+07 6.95906E-21
 2.00000E+07 7.08581E-21
 2.20000E+07 7.17674E-21
 2.50000E+07 7.29941E-21
 3.00000E+07 7.47473E-21
 3.50000E+07 7.62364E-21
 4.00000E+07 7.75314E-21
 4.50000E+07 7.86744E-21
 5.00000E+07 7.96998E-21
 5.50000E+07 8.06296E-21
 6.00000E+07 8.14756E-21
 7.00000E+07 8.29807E-21
 8.00000E+07 8.42877E-21
 9.00000E+07 8.54380E-21
 1.00000E+08 8.64708E-21
 1.10000E+08 8.74038E-21
 1.25000E+08 8.86585E-21
 1.40000E+08 8.97696E-21
 1.50000E+08 9.04470E-21
 1.75000E+08 9.19600E-21
 2.00000E+08 9.32726E-21
 2.20000E+08 9.42126E-21
 2.50000E+08 9.54652E-21
 3.00000E+08 9.72615E-21
 3.50000E+08 9.87750E-21
 4.00000E+08 1.00091E-20
 4.50000E+08 1.01249E-20
 5.00000E+08 1.02286E-20
 5.50000E+08 1.03224E-20
 6.00000E+08 1.04080E-20
 7.00000E+08 1.05597E-20
 8.00000E+08 1.06911E-20
 9.00000E+08 1.08071E-20
 1.00000E+09 1.09108E-20
 *** Electron scaled bremss x-section,  ZEQ = 7.28647E+00,  NDATA =  57
 1.00E+03 6.80198E+00 6.86531E+00 6.92441E+00 6.97605E+00 7.02103E+00
          7.09532E+00 7.14871E+00 7.18348E+00 7.20111E+00 7.20426E+00
          7.19668E+00 7.17976E+00 7.15520E+00 7.12404E+00 7.08714E+00
          7.04566E+00 7.00100E+00 6.95667E+00 6.91673E+00 6.88402E+00
          6.86005E+00 6.84993E+00 6.83884E+00 6.82822E+00 6.81479E+00
          6.81099E+00 6.80798E+00 6.80758E+00 6.80729E+00 6.80726E+00
          6.80723E+00 6.80722E+00                                     6.082E+00
 1.50E+03 7.75243E+00 7.82358E+00 7.88817E+00 7.94121E+00 7.98394E+00
          8.04556E+00 8.07622E+00 8.08056E+00 8.06219E+00 8.02668E+00
          7.98101E+00 7.92591E+00 7.86037E+00 7.78519E+00 7.70547E+00
          7.62582E+00 7.54646E+00 7.46698E+00 7.38810E+00 7.31413E+00
          7.24575E+00 7.21094E+00 7.17716E+00 7.15317E+00 7.13467E+00
          7.13009E+00 7.12632E+00 7.12586E+00 7.12551E+00 7.12545E+00
          7.12543E+00 7.12537E+00                                     6.681E+00
 2.00E+03 8.42867E+00 8.50632E+00 8.57404E+00 8.62432E+00 8.65931E+00
          8.69568E+00 8.69252E+00 8.66108E+00 8.60663E+00 8.53542E+00
          8.45507E+00 8.36623E+00 8.26749E+00 8.16004E+00 8.04974E+00
          7.94198E+00 7.83690E+00 7.73335E+00 7.63131E+00 7.53477E+00
          7.44398E+00 7.39828E+00 7.35518E+00 7.32523E+00 7.29990E+00
          7.29378E+00 7.28895E+00 7.28836E+00 7.28790E+00 7.28780E+00
          7.28777E+00 7.28771E+00                                     7.049E+00
 3.00E+03 9.38154E+00 9.45955E+00 9.52268E+00 9.55975E+00 9.57438E+00
          9.55684E+00 9.48854E+00 9.39009E+00 9.26895E+00 9.13232E+00
          8.98867E+00 8.84031E+00 8.68812E+00 8.53458E+00 8.38261E+00
          8.23548E+00 8.09380E+00 7.95748E+00 7.82674E+00 7.70261E+00
          7.58777E+00 7.53530E+00 7.48594E+00 7.44953E+00 7.41387E+00
          7.40541E+00 7.39874E+00 7.39786E+00 7.39721E+00 7.39712E+00
          7.39706E+00 7.39702E+00                                     7.471E+00
 4.00E+03 1.00547E+01 1.01272E+01 1.01808E+01 1.02013E+01 1.01937E+01
          1.01220E+01 9.99240E+00 9.83322E+00 9.65386E+00 9.46221E+00
          9.26740E+00 9.07250E+00 8.87955E+00 8.69138E+00 8.50854E+00
          8.33264E+00 8.16457E+00 8.00494E+00 7.85423E+00 7.71203E+00
          7.58330E+00 7.52803E+00 7.47622E+00 7.43666E+00 7.39485E+00
          7.38495E+00 7.37710E+00 7.37605E+00 7.37529E+00 7.37519E+00
          7.37510E+00 7.37511E+00                                     7.697E+00
 5.00E+03 1.05812E+01 1.06351E+01 1.06694E+01 1.06695E+01 1.06409E+01
          1.05268E+01 1.03516E+01 1.01422E+01 9.91003E+00 9.66695E+00
          9.42619E+00 9.19158E+00 8.96480E+00 8.74820E+00 8.54147E+00
          8.34513E+00 8.15912E+00 7.98185E+00 7.81252E+00 7.65411E+00
          7.51574E+00 7.45819E+00 7.40413E+00 7.36216E+00 7.31697E+00
          7.30619E+00 7.29769E+00 7.29658E+00 7.29572E+00 7.29562E+00
          7.29552E+00 7.29554E+00                                     7.830E+00
 6.00E+03 1.10039E+01 1.10463E+01 1.10666E+01 1.10487E+01 1.09989E+01
          1.08381E+01 1.06137E+01 1.03566E+01 1.00801E+01 9.79663E+00
          9.52025E+00 9.25452E+00 9.00072E+00 8.76045E+00 8.53280E+00
          8.31755E+00 8.11445E+00 7.92148E+00 7.73772E+00 7.56668E+00
          7.41879E+00 7.35806E+00 7.30140E+00 7.25765E+00 7.21054E+00
          7.19934E+00 7.19054E+00 7.18936E+00 7.18847E+00 7.18838E+00
          7.18828E+00 7.18831E+00                                     7.911E+00
 8.00E+03 1.16536E+01 1.16864E+01 1.16893E+01 1.16404E+01 1.15494E+01
          1.12920E+01 1.09669E+01 1.06233E+01 1.02756E+01 9.93334E+00
          9.60637E+00 9.29594E+00 9.00118E+00 8.72185E+00 8.45774E+00
          8.20856E+00 7.97457E+00 7.75475E+00 7.54868E+00 7.35776E+00
          7.19069E+00 7.12140E+00 7.05821E+00 7.01163E+00 6.96334E+00
          6.95208E+00 6.94325E+00 6.94205E+00 6.94120E+00 6.94109E+00
          6.94099E+00 6.94099E+00                                     7.992E+00
 1.00E+04 1.21612E+01 1.21714E+01 1.21482E+01 1.20671E+01 1.19398E+01
          1.16067E+01 1.12064E+01 1.07952E+01 1.03884E+01 9.99569E+00
          9.62674E+00 9.28038E+00 8.95311E+00 8.64256E+00 8.35032E+00
          8.07638E+00 7.82025E+00 7.57918E+00 7.35179E+00 7.14171E+00
          6.95745E+00 6.87879E+00 6.80787E+00 6.75795E+00 6.71005E+00
          6.69907E+00 6.69051E+00 6.68938E+00 6.68856E+00 6.68845E+00
          6.68837E+00 6.68834E+00                                     8.020E+00
 1.50E+04 1.33251E+01 1.31417E+01 1.29421E+01 1.27156E+01 1.24720E+01
          1.19728E+01 1.14659E+01 1.09715E+01 1.04946E+01 1.00381E+01
          9.60516E+00 9.19291E+00 8.80219E+00 8.43004E+00 8.07989E+00
          7.75054E+00 7.44229E+00 7.15424E+00 6.88622E+00 6.63972E+00
          6.42083E+00 6.32783E+00 6.25320E+00 6.20674E+00 6.13320E+00
          6.10588E+00 6.10849E+00 6.11214E+00 6.11026E+00 6.10898E+00
          6.11143E+00 6.10976E+00                                     7.998E+00
 2.00E+04 1.40433E+01 1.37439E+01 1.34382E+01 1.31231E+01 1.28077E+01
          1.22039E+01 1.16247E+01 1.10688E+01 1.05356E+01 1.00246E+01
          9.53535E+00 9.06760E+00 8.62613E+00 8.20866E+00 7.81824E+00
          7.45190E+00 7.11047E+00 6.79517E+00 6.50610E+00 6.23793E+00
          5.99218E+00 5.88568E+00 5.79825E+00 5.74000E+00 5.64329E+00
          5.61011E+00 5.62277E+00 5.62904E+00 5.62574E+00 5.62373E+00
          5.62714E+00 5.62498E+00                                     7.945E+00
 3.00E+04 1.45226E+01 1.43354E+01 1.41018E+01 1.37896E+01 1.34235E+01
          1.26393E+01 1.18399E+01 1.11014E+01 1.04313E+01 9.82509E+00
          9.27341E+00 8.76929E+00 8.29974E+00 7.85209E+00 7.43333E+00
          7.04180E+00 6.67247E+00 6.31826E+00 5.97527E+00 5.65007E+00
          5.33847E+00 5.18332E+00 5.04375E+00 4.95572E+00 4.89686E+00
          4.88500E+00 4.87644E+00 4.87552E+00 4.87478E+00 4.87464E+00
          4.87463E+00 4.87465E+00                                     7.842E+00
 4.00E+04 1.50726E+01 1.48039E+01 1.44892E+01 1.40975E+01 1.36569E+01
          1.27472E+01 1.18510E+01 1.10413E+01 1.03185E+01 9.67070E+00
          9.08133E+00 8.54283E+00 8.04422E+00 7.57025E+00 7.12579E+00
          6.70964E+00 6.31470E+00 5.93449E+00 5.56489E+00 5.20925E+00
          4.85993E+00 4.68365E+00 4.52337E+00 4.41981E+00 4.34789E+00
          4.33325E+00 4.32254E+00 4.32135E+00 4.32042E+00 4.32023E+00
          4.32020E+00 4.32023E+00                                     7.743E+00
 5.00E+04 1.57020E+01 1.51863E+01 1.46661E+01 1.41407E+01 1.36265E+01
          1.26752E+01 1.17998E+01 1.09928E+01 1.02483E+01 9.56121E+00
          8.92601E+00 8.34264E+00 7.81113E+00 7.31765E+00 6.85818E+00
          6.42888E+00 6.02179E+00 5.63420E+00 5.25971E+00 4.88203E+00
          4.49092E+00 4.29849E+00 4.12565E+00 4.01099E+00 3.92098E+00
          3.90995E+00 3.89415E+00 3.89154E+00 3.89088E+00 3.89070E+00
          3.89095E+00 3.89071E+00                                     7.651E+00
 6.00E+04 1.59709E+01 1.54050E+01 1.48360E+01 1.42645E+01 1.37080E+01
          1.26858E+01 1.17530E+01 1.09006E+01 1.01208E+01 9.40494E+00
          8.74910E+00 8.15249E+00 7.61175E+00 7.11114E+00 6.64378E+00
          6.20686E+00 5.79059E+00 5.39141E+00 5.00245E+00 4.60742E+00
          4.19627E+00 3.99305E+00 3.80960E+00 3.68587E+00 3.58314E+00
