 PENELOPE (v. 2018)  Material data file ...............
 Material: AIR, DRY (NEAR SEA LEVEL)  (104)                              
 Mass density = 1.20479000E-03 g/cm**3
 Number of elements in the molecule =  4
   atomic number =  6,  atoms/molecule = 1.50187000E-04
   atomic number =  7,  atoms/molecule = 7.84430000E-01
   atomic number =  8,  atoms/molecule = 2.10748000E-01
   atomic number = 18,  atoms/molecule = 4.67111000E-03
 Mean excitation energy = 8.57000000E+01 eV
 Number of oscillators = 12 (E/P inelastic model)
   1  3.00374000E-04  1.12600000E+01  2.31279377E+01   6  30
   2  3.19628200E+00  1.42899953E+01  2.93405463E+01   0  30
   3  2.83270340E-02  1.58281649E+01  3.25100647E+01   0  30
   4  1.56886000E+00  2.03300000E+01  4.17584960E+01   7  30
   5  4.30838220E-01  2.84964797E+01  5.85312373E+01   0  30
   6  1.86844400E-02  2.48500000E+02  5.10416737E+02  18   4
   7  9.34222000E-03  2.50600000E+02  5.14730118E+02  18   3
   8  3.00374000E-04  2.88000000E+02  5.91549376E+02   6   1
   9  9.34222000E-03  3.26500000E+02  6.70628026E+02  18   2
  10  1.56886000E+00  4.03000000E+02  8.27758372E+02   7   1
  11  4.21496000E-01  5.38000000E+02  1.10504711E+03   8   1
  12  9.34222000E-03  3.20630000E+03  6.58571099E+03  18   1
 Number of shells = 12 (Compton IA model)
   1  3.00374000E-04  1.12600000E+01  4.88373000E-01   6  30
   2  3.19628200E+00  1.42899953E+01  3.91888703E-01   0  30
   3  2.83270340E-02  1.58281649E+01  4.45285434E-01   0  30
   4  1.56886000E+00  2.03300000E+01  6.71894000E-01   7  30
   5  4.30838220E-01  2.84964797E+01  5.79454037E-01   0  30
   6  1.86844400E-02  2.48500000E+02  1.03751000E-01  18   4
   7  9.34222000E-03  2.50600000E+02  1.03179000E-01  18   3
   8  3.00374000E-04  2.88000000E+02  1.53080000E-01   6   1
   9  9.34222000E-03  3.26500000E+02  1.97433000E-01  18   2
  10  1.56886000E+00  4.03000000E+02  1.30137000E-01   7   1
  11  4.21496000E-01  5.38000000E+02  1.13183000E-01   8   1
  12  9.34222000E-03  3.20630000E+03  4.86931000E-02  18   1
 *** RELAX:  Z =  6,  no. of shells =  3,  no. of transitions =    8
   1 1s1/2 2  2.88000E+02  6.14394E-02  1.53080E-01
   2 2s1/2 2  1.65900E+01  0.00000E+00  8.03154E-01
   3 2p1/2 2  1.12600E+01  0.00000E+00  4.88373E-01
   1  3  0  5.61488E-04  2.77000E+02
   1  4  0  1.12060E-03  2.77000E+02
   1  2  2  4.13609E-01  2.55890E+02
   1  2  3  1.36190E-01  2.64460E+02
   1  2  4  2.71099E-01  2.64470E+02
   1  3  3  4.20748E-03  2.73030E+02
   1  3  4  1.10012E-01  2.73040E+02
   1  4  4  6.32008E-02  2.73050E+02
 *** RELAX:  Z =  7,  no. of shells =  4,  no. of transitions =    8
   1 1s1/2 2  4.03000E+02  9.27355E-02  1.30137E-01
   2 2s1/2 2  2.03300E+01  0.00000E+00  6.71894E-01
   3 2p1/2 2  1.45300E+01  0.00000E+00  4.06903E-01
   4 2p3/2 1  1.45300E+01  0.00000E+00  4.07257E-01
   1  3  0  1.09420E-03  3.92400E+02
   1  4  0  2.18181E-03  3.92400E+02
   1  2  2  2.65388E-01  3.58650E+02
   1  2  3  1.29999E-01  3.70250E+02
   1  2  4  2.58276E-01  3.70270E+02
   1  3  3  8.15943E-03  3.81850E+02
   1  3  4  2.12711E-01  3.81870E+02
   1  4  4  1.22190E-01  3.81890E+02
 *** RELAX:  Z =  8,  no. of shells =  4,  no. of transitions =    8
   1 1s1/2 2  5.38000E+02  1.33383E-01  1.13183E-01
   2 2s1/2 2  2.84800E+01  0.00000E+00  5.77977E-01
   3 2p1/2 2  1.36200E+01  0.00000E+00  3.49407E-01
   4 2p3/2 2  1.36200E+01  0.00000E+00  3.49884E-01
   1  3  0  1.90768E-03  5.24900E+02
   1  4  0  3.80027E-03  5.24900E+02
   1  2  2  1.78644E-01  4.78820E+02
   1  2  3  1.16224E-01  4.93860E+02
   1  2  4  2.30418E-01  4.93900E+02
   1  3  3  1.10822E-02  5.08900E+02
   1  3  4  2.91115E-01  5.08940E+02
   1  4  4  1.66809E-01  5.08980E+02
 *** RELAX:  Z = 18,  no. of shells =  7,  no. of transitions =   55
   1 1s1/2 2  3.20630E+03  6.60000E-01  4.86931E-02
   2 2s1/2 2  3.26500E+02  1.80000E+00  1.97433E-01
   3 2p1/2 2  2.50600E+02  1.30000E-01  1.03179E-01
   4 2p3/2 4  2.48500E+02  1.30000E-01  1.03751E-01
   5 3s1/2 2  2.92400E+01  1.40000E-01  6.46094E-01
   6 3p1/2 2  1.59400E+01  0.00000E+00  4.39676E-01
   7 3p3/2 4  1.57600E+01  0.00000E+00  4.42337E-01
   1  3  0  3.55868E-02  2.95557E+03
   1  4  0  7.03336E-02  2.95768E+03
   1  6  0  2.91258E-03  3.19049E+03
   1  7  0  5.75646E-03  3.19049E+03
   1  2  2  6.16844E-02  2.55074E+03
   1  2  3  6.75987E-02  2.61474E+03
   1  2  4  1.29586E-01  2.61708E+03
   1  2  5  1.37829E-02  2.83525E+03
   1  2  6  6.39436E-03  2.84955E+03
   1  2  7  1.22222E-02  2.84974E+03
   1  3  3  1.21489E-02  2.67874E+03
   1  3  4  3.02561E-01  2.68108E+03
   1  3  5  6.61466E-03  2.89925E+03
   1  3  6  2.20338E-03  2.91355E+03
   1  3  7  2.55000E-02  2.91374E+03
   1  4  4  1.71563E-01  2.68342E+03
   1  4  5  1.27069E-02  2.90159E+03
   1  4  6  2.55026E-02  2.91589E+03
   1  4  7  2.92457E-02  2.91608E+03
   1  5  5  7.64713E-04  3.11976E+03
   1  5  6  6.26469E-04  3.13406E+03
   1  5  7  1.20100E-03  3.13425E+03
   1  6  6  9.93685E-05  3.14836E+03
   1  6  7  2.16012E-03  3.14855E+03
   1  7  7  1.24429E-03  3.14874E+03
   2  3  0  1.23859E-04  6.40000E+01
   2  4  0  3.33608E-04  6.63400E+01
   2  6  0  9.68363E-05  3.11180E+02
   2  7  0  1.52699E-04  3.11350E+02
   2  4  6  8.98110E-02  5.17200E+01
   2  4  7  2.33431E-01  5.19100E+01
   2  5  5  7.34583E-03  2.55590E+02
   2  5  6  1.17252E-02  2.69890E+02
   2  5  7  2.31926E-02  2.70080E+02
   2  6  6  2.96096E-04  2.84190E+02
   2  6  7  7.11414E-05  2.84380E+02
   2  7  7  6.48915E-04  2.84570E+02
   3  5  0  5.71349E-04  2.21790E+02
   3  7  0  2.45970E-07  2.35580E+02
   3  5  5  1.21988E-02  1.91590E+02
   3  5  6  2.19087E-01  2.05890E+02
   3  5  7  1.53435E-02  2.06080E+02
   3  6  6  1.61746E-01  2.20190E+02
   3  6  7  5.74753E-01  2.20380E+02
   3  7  7  1.63000E-02  2.20570E+02
   4  5  0  5.39180E-04  2.20220E+02
   4  6  0  1.14890E-07  2.33400E+02
   4  7  0  1.12760E-07  2.33570E+02
   4  5  5  1.20275E-02  1.89250E+02
   4  5  6  7.49704E-03  2.03550E+02
   4  5  7  2.26636E-01  2.03740E+02
   4  6  6  2.71477E-03  2.17850E+02
   4  6  7  3.01615E-01  2.18040E+02
   4  7  7  4.48970E-01  2.18230E+02
   2 30 30  6.32772E-01  4.01462E+01
 *** Electron ionisation cross sections,  IZ =  6,  NSHELL =  1,  NDATA = 201
 4.00000E+01 0.00000E+00
 4.50000E+01 0.00000E+00
 5.00000E+01 0.00000E+00
 5.50000E+01 0.00000E+00
 6.00000E+01 0.00000E+00
 7.00000E+01 0.00000E+00
 8.00000E+01 0.00000E+00
 9.00000E+01 0.00000E+00
 1.00000E+02 0.00000E+00
 1.10000E+02 0.00000E+00
 1.25000E+02 0.00000E+00
 1.40000E+02 0.00000E+00
 1.50000E+02 0.00000E+00
 1.75000E+02 0.00000E+00
 2.00000E+02 0.00000E+00
 2.20000E+02 0.00000E+00
 2.50000E+02 0.00000E+00
 2.88000E+02 0.00000E+00
 2.88000E+02 0.00000E+00
 2.90880E+02 6.47323E-21
 2.94874E+02 1.52506E-20
 2.98924E+02 2.39164E-20
 3.00000E+02 2.61817E-20
 3.03028E+02 3.24693E-20
 3.07189E+02 4.09082E-20
 3.11408E+02 4.92320E-20
 3.15684E+02 5.74399E-20
 3.20019E+02 6.55311E-20
 3.24413E+02 7.35052E-20
 3.28868E+02 8.13616E-20
 3.33384E+02 8.91001E-20
 3.37962E+02 9.67204E-20
 3.42603E+02 1.04222E-19
 3.47307E+02 1.11606E-19
 3.50000E+02 1.15735E-19
 3.52077E+02 1.18872E-19
 3.56911E+02 1.26019E-19
 3.61812E+02 1.33049E-19
 3.66781E+02 1.39961E-19
 3.71817E+02 1.46756E-19
 3.76923E+02 1.53435E-19
 3.82099E+02 1.59997E-19
 3.87346E+02 1.66443E-19
 3.92665E+02 1.72774E-19
 3.98057E+02 1.78991E-19
 4.00000E+02 1.81183E-19
 4.03523E+02 1.85093E-19
 4.09064E+02 1.91083E-19
 4.14681E+02 1.96959E-19
 4.20376E+02 2.02724E-19
 4.26148E+02 2.08377E-19
 4.32000E+02 2.13919E-19
 4.50000E+02 2.29866E-19
 4.55568E+02 2.34498E-19
 4.80421E+02 2.53570E-19
 5.00000E+02 2.66888E-19
 5.06631E+02 2.71086E-19
 5.34270E+02 2.87060E-19
 5.50000E+02 2.95159E-19
 5.63417E+02 3.01560E-19
 5.94154E+02 3.14653E-19
 6.00000E+02 3.16917E-19
 6.26568E+02 3.26382E-19
 6.60750E+02 3.36761E-19
 7.00000E+02 3.46521E-19
 7.34811E+02 3.53527E-19
 7.74899E+02 3.59981E-19
 8.00000E+02 3.63267E-19
 8.17173E+02 3.65218E-19
 8.61754E+02 3.69289E-19
 9.00000E+02 3.71784E-19
 9.08767E+02 3.72242E-19
 9.58345E+02 3.74134E-19
 1.00000E+03 3.74923E-19
 1.01063E+03 3.75023E-19
 1.06576E+03 3.74965E-19
 1.10000E+03 3.74503E-19
 1.12390E+03 3.74013E-19
 1.18522E+03 3.72222E-19
 1.25000E+03 3.69649E-19
 1.31807E+03 3.66381E-19
 1.38997E+03 3.62457E-19
 1.40000E+03 3.61880E-19
 1.46580E+03 3.57943E-19
 1.50000E+03 3.55816E-19
 1.54577E+03 3.52900E-19
 1.63010E+03 3.47385E-19
 1.71903E+03 3.41451E-19
 1.75000E+03 3.39373E-19
 1.81281E+03 3.35154E-19
 1.91171E+03 3.28538E-19
 2.00000E+03 3.22695E-19
 2.01600E+03 3.21645E-19
 2.20000E+03 3.09822E-19
 2.50000E+03 2.91763E-19
 3.00000E+03 2.65389E-19
 3.50000E+03 2.43165E-19
 4.00000E+03 2.24462E-19
 4.50000E+03 2.08493E-19
 5.00000E+03 1.95011E-19
 5.50000E+03 1.83330E-19
 6.00000E+03 1.73024E-19
 7.00000E+03 1.55762E-19
 8.00000E+03 1.41862E-19
 9.00000E+03 1.30440E-19
 1.00000E+04 1.20843E-19
 1.10000E+04 1.12710E-19
 1.25000E+04 1.02561E-19
 1.40000E+04 9.42406E-20
 1.50000E+04 8.94889E-20
 1.75000E+04 7.96769E-20
 2.00000E+04 7.20343E-20
 2.20000E+04 6.70304E-20
 2.50000E+04 6.08415E-20
 3.00000E+04 5.30252E-20
 3.50000E+04 4.72252E-20
 4.00000E+04 4.27537E-20
 4.50000E+04 3.91996E-20
 5.00000E+04 3.63017E-20
 5.50000E+04 3.38867E-20
 6.00000E+04 3.18446E-20
 7.00000E+04 2.85817E-20
 8.00000E+04 2.60884E-20
 9.00000E+04 2.41195E-20
 1.00000E+05 2.25252E-20
 1.10000E+05 2.12082E-20
 1.25000E+05 1.96134E-20
 1.40000E+05 1.83504E-20
 1.50000E+05 1.76455E-20
 1.75000E+05 1.62311E-20
 2.00000E+05 1.51696E-20
 2.20000E+05 1.44963E-20
 2.50000E+05 1.36937E-20
 3.00000E+05 1.27290E-20
 3.50000E+05 1.20602E-20
 4.00000E+05 1.15775E-20
 4.50000E+05 1.12189E-20
 5.00000E+05 1.09469E-20
 5.50000E+05 1.07376E-20
 6.00000E+05 1.05748E-20
 7.00000E+05 1.03472E-20
 8.00000E+05 1.02071E-20
 9.00000E+05 1.01231E-20
 1.00000E+06 1.00765E-20
 1.10000E+06 1.00556E-20
 1.25000E+06 1.00565E-20
 1.40000E+06 1.00824E-20
 1.50000E+06 1.01087E-20
 1.75000E+06 1.01934E-20
 2.00000E+06 1.02926E-20
 2.20000E+06 1.03764E-20
 2.50000E+06 1.05037E-20
 3.00000E+06 1.07110E-20
 3.50000E+06 1.09062E-20
 4.00000E+06 1.10876E-20
 4.50000E+06 1.12557E-20
 5.00000E+06 1.14119E-20
 5.50000E+06 1.15569E-20
 6.00000E+06 1.16924E-20
 7.00000E+06 1.19384E-20
 8.00000E+06 1.21567E-20
 9.00000E+06 1.23527E-20
 1.00000E+07 1.25304E-20
 1.10000E+07 1.26930E-20
 1.25000E+07 1.29129E-20
 1.40000E+07 1.31099E-20
 1.50000E+07 1.32304E-20
 1.75000E+07 1.35014E-20
 2.00000E+07 1.37380E-20
 2.20000E+07 1.39076E-20
 2.50000E+07 1.41360E-20
 3.00000E+07 1.44632E-20
 3.50000E+07 1.47411E-20
 4.00000E+07 1.49825E-20
 4.50000E+07 1.51959E-20
 5.00000E+07 1.53870E-20
 5.50000E+07 1.55603E-20
 6.00000E+07 1.57185E-20
 7.00000E+07 1.59992E-20
 8.00000E+07 1.62428E-20
 9.00000E+07 1.64578E-20
 1.00000E+08 1.66505E-20
 1.10000E+08 1.68244E-20
 1.25000E+08 1.70586E-20
 1.40000E+08 1.72659E-20
 1.50000E+08 1.73920E-20
 1.75000E+08 1.76746E-20
 2.00000E+08 1.79193E-20
 2.20000E+08 1.80941E-20
 2.50000E+08 1.83286E-20
 3.00000E+08 1.86631E-20
 3.50000E+08 1.89452E-20
 4.00000E+08 1.91914E-20
 4.50000E+08 1.94076E-20
 5.00000E+08 1.96010E-20
 5.50000E+08 1.97759E-20
 6.00000E+08 1.99357E-20
 7.00000E+08 2.02187E-20
 8.00000E+08 2.04639E-20
 9.00000E+08 2.06802E-20
 1.00000E+09 2.08737E-20
 *** Electron ionisation cross sections,  IZ =  7,  NSHELL =  1,  NDATA = 199
 4.00000E+01 0.00000E+00
 4.50000E+01 0.00000E+00
 5.00000E+01 0.00000E+00
 5.50000E+01 0.00000E+00
 6.00000E+01 0.00000E+00
 7.00000E+01 0.00000E+00
 8.00000E+01 0.00000E+00
 9.00000E+01 0.00000E+00
 1.00000E+02 0.00000E+00
 1.10000E+02 0.00000E+00
 1.25000E+02 0.00000E+00
 1.40000E+02 0.00000E+00
 1.50000E+02 0.00000E+00
 1.75000E+02 0.00000E+00
 2.00000E+02 0.00000E+00
 2.20000E+02 0.00000E+00
 2.50000E+02 0.00000E+00
 3.00000E+02 0.00000E+00
 3.50000E+02 0.00000E+00
 4.00000E+02 0.00000E+00
 4.03000E+02 0.00000E+00
 4.03000E+02 0.00000E+00
 4.07030E+02 3.41635E-21
 4.12619E+02 8.04622E-21
 4.18285E+02 1.26145E-20
 4.24029E+02 1.71206E-20
 4.29852E+02 2.15642E-20
 4.35755E+02 2.59448E-20
 4.41738E+02 3.02621E-20
 4.47804E+02 3.45159E-20
 4.50000E+02 3.60261E-20
 4.53953E+02 3.87060E-20
 4.60187E+02 4.28324E-20
 4.66506E+02 4.68949E-20
 4.72912E+02 5.08937E-20
 4.79406E+02 5.48286E-20
 4.85989E+02 5.86999E-20
 4.92663E+02 6.25077E-20
 5.00000E+02 6.65635E-20
 5.06286E+02 6.99334E-20
 5.13238E+02 7.35518E-20
 5.20286E+02 7.71075E-20
 5.27431E+02 8.06009E-20
 5.34673E+02 8.40323E-20
 5.42015E+02 8.74020E-20
 5.50000E+02 9.09471E-20
 5.57003E+02 9.39577E-20
 5.64652E+02 9.71445E-20
 5.72406E+02 1.00271E-19
 5.80266E+02 1.03338E-19
 5.88234E+02 1.06345E-19
 5.96312E+02 1.09294E-19
 6.00000E+02 1.10607E-19
 6.04500E+02 1.12183E-19
 6.37478E+02 1.22867E-19
 6.72256E+02 1.32734E-19
 7.00000E+02 1.39707E-19
 7.08931E+02 1.41799E-19
 7.47607E+02 1.50075E-19
 7.88392E+02 1.57579E-19
 8.00000E+02 1.59510E-19
 8.31403E+02 1.64325E-19
 8.76760E+02 1.70332E-19
 9.00000E+02 1.73027E-19
 9.24592E+02 1.75624E-19
 9.75033E+02 1.80222E-19
 1.00000E+03 1.82173E-19
 1.02823E+03 1.84147E-19
 1.08432E+03 1.87416E-19
 1.10000E+03 1.88189E-19
 1.14348E+03 1.90044E-19
 1.20586E+03 1.92056E-19
 1.25000E+03 1.93094E-19
 1.27164E+03 1.93501E-19
 1.34102E+03 1.94406E-19
 1.40000E+03 1.94756E-19
 1.41418E+03 1.94789E-19
 1.50000E+03 1.94636E-19
 1.57269E+03 1.94105E-19
 1.65848E+03 1.93109E-19
 1.75000E+03 1.91695E-19
 1.84438E+03 1.89942E-19
 1.94500E+03 1.87852E-19
 2.00000E+03 1.86636E-19
 2.05110E+03 1.85467E-19
 2.16300E+03 1.82805E-19
 2.20000E+03 1.81902E-19
 2.28101E+03 1.79900E-19
 2.40545E+03 1.76784E-19
 2.50000E+03 1.74404E-19
 2.53667E+03 1.73482E-19
 2.67506E+03 1.70020E-19
 2.82100E+03 1.66419E-19
 3.00000E+03 1.62106E-19
 3.50000E+03 1.50824E-19
 4.00000E+03 1.40820E-19
 4.50000E+03 1.31984E-19
 5.00000E+03 1.24186E-19
 5.50000E+03 1.17290E-19
 6.00000E+03 1.11130E-19
 7.00000E+03 1.00813E-19
 8.00000E+03 9.24323E-20
 9.00000E+03 8.54453E-20
 1.00000E+04 7.94898E-20
 1.10000E+04 7.43912E-20
 1.25000E+04 6.79747E-20
 1.40000E+04 6.26738E-20
 1.50000E+04 5.96256E-20
 1.75000E+04 5.32927E-20
 2.00000E+04 4.83167E-20
 2.20000E+04 4.50378E-20
 2.50000E+04 4.09745E-20
 3.00000E+04 3.58148E-20
 3.50000E+04 3.19672E-20
 4.00000E+04 2.89966E-20
 4.50000E+04 2.66219E-20
 5.00000E+04 2.46768E-20
 5.50000E+04 2.30586E-20
 6.00000E+04 2.16898E-20
 7.00000E+04 1.94971E-20
 8.00000E+04 1.78157E-20
 9.00000E+04 1.64842E-20
 1.00000E+05 1.54062E-20
 1.10000E+05 1.45163E-20
 1.25000E+05 1.34375E-20
 1.40000E+05 1.25798E-20
 1.50000E+05 1.21006E-20
 1.75000E+05 1.11308E-20
 2.00000E+05 1.04106E-20
 2.20000E+05 9.95361E-21
 2.50000E+05 9.40884E-21
 3.00000E+05 8.75422E-21
 3.50000E+05 8.30066E-21
 4.00000E+05 7.97364E-21
 4.50000E+05 7.73115E-21
 5.00000E+05 7.54764E-21
 5.50000E+05 7.40674E-21
 6.00000E+05 7.29751E-21
 7.00000E+05 7.14577E-21
 8.00000E+05 7.05357E-21
 9.00000E+05 6.99948E-21
 1.00000E+06 6.97080E-21
 1.10000E+06 6.95952E-21
 1.25000E+06 6.96436E-21
 1.40000E+06 6.98602E-21
 1.50000E+06 7.00651E-21
 1.75000E+06 7.07019E-21
 2.00000E+06 7.14335E-21
 2.20000E+06 7.20452E-21
 2.50000E+06 7.29693E-21
 3.00000E+06 7.44679E-21
 3.50000E+06 7.58729E-21
 4.00000E+06 7.71762E-21
 4.50000E+06 7.83816E-21
 5.00000E+06 7.95005E-21
 5.50000E+06 8.05400E-21
 6.00000E+06 8.15093E-21
 7.00000E+06 8.32700E-21
 8.00000E+06 8.48318E-21
 9.00000E+06 8.62331E-21
 1.00000E+07 8.75040E-21
 1.10000E+07 8.86650E-21
 1.25000E+07 9.02375E-21
 1.40000E+07 9.16431E-21
 1.50000E+07 9.25050E-21
 1.75000E+07 9.44424E-21
 2.00000E+07 9.61316E-21
 2.20000E+07 9.73427E-21
 2.50000E+07 9.89741E-21
 3.00000E+07 1.01311E-20
 3.50000E+07 1.03295E-20
 4.00000E+07 1.05020E-20
 4.50000E+07 1.06544E-20
 5.00000E+07 1.07910E-20
 5.50000E+07 1.09148E-20
 6.00000E+07 1.10276E-20
 7.00000E+07 1.12282E-20
 8.00000E+07 1.14021E-20
 9.00000E+07 1.15558E-20
 1.00000E+08 1.16933E-20
 1.10000E+08 1.18175E-20
 1.25000E+08 1.19846E-20
 1.40000E+08 1.21328E-20
 1.50000E+08 1.22230E-20
 1.75000E+08 1.24245E-20
 2.00000E+08 1.25993E-20
 2.20000E+08 1.27241E-20
 2.50000E+08 1.28917E-20
 3.00000E+08 1.31307E-20
 3.50000E+08 1.33325E-20
 4.00000E+08 1.35079E-20
 4.50000E+08 1.36623E-20
 5.00000E+08 1.38004E-20
 5.50000E+08 1.39253E-20
 6.00000E+08 1.40394E-20
 7.00000E+08 1.42415E-20
 8.00000E+08 1.44166E-20
 9.00000E+08 1.45711E-20
 1.00000E+09 1.47093E-20
 *** Electron ionisation cross sections,  IZ =  8,  NSHELL =  1,  NDATA = 198
 4.00000E+01 0.00000E+00
 4.50000E+01 0.00000E+00
 5.00000E+01 0.00000E+00
 5.50000E+01 0.00000E+00
 6.00000E+01 0.00000E+00
 7.00000E+01 0.00000E+00
 8.00000E+01 0.00000E+00
 9.00000E+01 0.00000E+00
 1.00000E+02 0.00000E+00
 1.10000E+02 0.00000E+00
 1.25000E+02 0.00000E+00
 1.40000E+02 0.00000E+00
 1.50000E+02 0.00000E+00
 1.75000E+02 0.00000E+00
 2.00000E+02 0.00000E+00
 2.20000E+02 0.00000E+00
 2.50000E+02 0.00000E+00
 3.00000E+02 0.00000E+00
 3.50000E+02 0.00000E+00
 4.00000E+02 0.00000E+00
 4.50000E+02 0.00000E+00
 5.00000E+02 0.00000E+00
 5.38000E+02 0.00000E+00
 5.38000E+02 0.00000E+00
 5.43380E+02 1.97422E-21
 5.50000E+02 4.35048E-21
 5.58406E+02 7.28580E-21
 5.66074E+02 9.88597E-21
 5.73847E+02 1.24488E-20
 5.81727E+02 1.49742E-20
 5.89715E+02 1.74619E-20
 5.97813E+02 1.99120E-20
 6.00000E+02 2.05617E-20
 6.06022E+02 2.23245E-20
 6.14344E+02 2.46993E-20
 6.22780E+02 2.70364E-20
 6.31332E+02 2.93359E-20
 6.40001E+02 3.15980E-20
 6.48790E+02 3.38226E-20
 6.57699E+02 3.60100E-20
 6.66730E+02 3.81603E-20
 6.75886E+02 4.02736E-20
 6.85167E+02 4.23502E-20
 6.94575E+02 4.43902E-20
 7.00000E+02 4.55375E-20
 7.04113E+02 4.63938E-20
 7.13782E+02 4.83613E-20
 7.23584E+02 5.02928E-20
 7.33520E+02 5.21887E-20
 7.43592E+02 5.40491E-20
 7.53803E+02 5.58743E-20
 7.64154E+02 5.76646E-20
 7.74648E+02 5.94202E-20
 7.85285E+02 6.11413E-20
 7.96068E+02 6.28283E-20
 8.00000E+02 6.34293E-20
 8.07000E+02 6.44814E-20
 8.51026E+02 7.05767E-20
 9.00000E+02 7.64739E-20
 9.46414E+02 8.13315E-20
 1.00000E+03 8.61847E-20
 1.05249E+03 9.02660E-20
 1.10000E+03 9.34647E-20
 1.10991E+03 9.40787E-20
 1.17046E+03 9.74700E-20
 1.23432E+03 1.00452E-19
 1.25000E+03 1.01101E-19
 1.30166E+03 1.03035E-19
 1.37267E+03 1.05233E-19
 1.40000E+03 1.05953E-19
 1.44755E+03 1.07056E-19
 1.50000E+03 1.08073E-19
 1.52653E+03 1.08516E-19
 1.60980E+03 1.09629E-19
 1.69763E+03 1.10415E-19
 1.75000E+03 1.10724E-19
 1.79024E+03 1.10891E-19
 1.88791E+03 1.11071E-19
 2.00000E+03 1.10948E-19
 2.09952E+03 1.10604E-19
 2.20000E+03 1.10085E-19
 2.33484E+03 1.09178E-19
 2.46222E+03 1.08146E-19
 2.50000E+03 1.07816E-19
 2.59655E+03 1.06933E-19
 2.73820E+03 1.05549E-19
 2.88758E+03 1.04008E-19
 3.00000E+03 1.02815E-19
 3.04511E+03 1.02332E-19
 3.21124E+03 1.00540E-19
 3.38643E+03 9.86453E-20
 3.50000E+03 9.74226E-20
 3.57117E+03 9.66608E-20
 3.76600E+03 9.46008E-20
 4.00000E+03 9.21882E-20
 4.50000E+03 8.73034E-20
 5.00000E+03 8.28284E-20
 5.50000E+03 7.87584E-20
 6.00000E+03 7.50510E-20
 7.00000E+03 6.86150E-20
 8.00000E+03 6.32125E-20
 9.00000E+03 5.86933E-20
 1.00000E+04 5.48868E-20
 1.10000E+04 5.15640E-20
 1.25000E+04 4.73353E-20
 1.40000E+04 4.38049E-20
 1.50000E+04 4.17647E-20
 1.75000E+04 3.74867E-20
 2.00000E+04 3.40910E-20
 2.20000E+04 3.18419E-20
 2.50000E+04 2.90436E-20
 3.00000E+04 2.54602E-20
 3.50000E+04 2.27788E-20
 4.00000E+04 2.06974E-20
 4.50000E+04 1.90268E-20
 5.00000E+04 1.76591E-20
 5.50000E+04 1.65209E-20
 6.00000E+04 1.55532E-20
 7.00000E+04 1.39971E-20
 8.00000E+04 1.28052E-20
 9.00000E+04 1.18608E-20
 1.00000E+05 1.10945E-20
 1.10000E+05 1.04571E-20
 1.25000E+05 9.68744E-21
 1.40000E+05 9.07701E-21
 1.50000E+05 8.73564E-21
 1.75000E+05 8.04989E-21
 2.00000E+05 7.53462E-21
 2.20000E+05 7.20753E-21
 2.50000E+05 6.81757E-21
 3.00000E+05 6.34889E-21
 3.50000E+05 6.02438E-21
 4.00000E+05 5.79073E-21
 4.50000E+05 5.61772E-21
 5.00000E+05 5.48707E-21
 5.50000E+05 5.38702E-21
 6.00000E+05 5.30971E-21
 7.00000E+05 5.20297E-21
 8.00000E+05 5.13895E-21
 9.00000E+05 5.10228E-21
 1.00000E+06 5.08379E-21
 1.10000E+06 5.07774E-21
 1.25000E+06 5.08416E-21
 1.40000E+06 5.10252E-21
 1.50000E+06 5.11902E-21
 1.75000E+06 5.16899E-21
 2.00000E+06 5.22541E-21
 2.20000E+06 5.27226E-21
 2.50000E+06 5.34260E-21
 3.00000E+06 5.45630E-21
 3.50000E+06 5.56257E-21
 4.00000E+06 5.66090E-21
 4.50000E+06 5.75177E-21
 5.00000E+06 5.83593E-21
 5.50000E+06 5.91425E-21
 6.00000E+06 5.98717E-21
 7.00000E+06 6.11960E-21
 8.00000E+06 6.23706E-21
 9.00000E+06 6.34221E-21
 1.00000E+07 6.43776E-21
 1.10000E+07 6.52504E-21
 1.25000E+07 6.64307E-21
 1.40000E+07 6.74867E-21
 1.50000E+07 6.81339E-21
 1.75000E+07 6.95882E-21
 2.00000E+07 7.08560E-21
 2.20000E+07 7.17654E-21
 2.50000E+07 7.29924E-21
 3.00000E+07 7.47458E-21
 3.50000E+07 7.62350E-21
 4.00000E+07 7.75302E-21
 4.50000E+07 7.86733E-21
 5.00000E+07 7.96988E-21
 5.50000E+07 8.06287E-21
 6.00000E+07 8.14747E-21
 7.00000E+07 8.29800E-21
 8.00000E+07 8.42870E-21
 9.00000E+07 8.54374E-21
 1.00000E+08 8.64703E-21
 1.10000E+08 8.74033E-21
 1.25000E+08 8.86581E-21
 1.40000E+08 8.97692E-21
 1.50000E+08 9.04467E-21
 1.75000E+08 9.19597E-21
 2.00000E+08 9.32723E-21
 2.20000E+08 9.42123E-21
 2.50000E+08 9.54650E-21
 3.00000E+08 9.72613E-21
 3.50000E+08 9.87748E-21
 4.00000E+08 1.00091E-20
 4.50000E+08 1.01249E-20
 5.00000E+08 1.02286E-20
 5.50000E+08 1.03224E-20
 6.00000E+08 1.04080E-20
 7.00000E+08 1.05597E-20
 8.00000E+08 1.06911E-20
 9.00000E+08 1.08071E-20
 1.00000E+09 1.09108E-20
 *** Electron ionisation cross sections,  IZ = 18,  NSHELL =  4,  NDATA = 332
 4.00000E+01 0.00000E+00 0.00000E+00 0.00000E+00 0.00000E+00
 4.50000E+01 0.00000E+00 0.00000E+00 0.00000E+00 0.00000E+00
 5.00000E+01 0.00000E+00 0.00000E+00 0.00000E+00 0.00000E+00
 5.50000E+01 0.00000E+00 0.00000E+00 0.00000E+00 0.00000E+00
 6.00000E+01 0.00000E+00 0.00000E+00 0.00000E+00 0.00000E+00
 7.00000E+01 0.00000E+00 0.00000E+00 0.00000E+00 0.00000E+00
 8.00000E+01 0.00000E+00 0.00000E+00 0.00000E+00 0.00000E+00
 9.00000E+01 0.00000E+00 0.00000E+00 0.00000E+00 0.00000E+00
 1.00000E+02 0.00000E+00 0.00000E+00 0.00000E+00 0.00000E+00
 1.10000E+02 0.00000E+00 0.00000E+00 0.00000E+00 0.00000E+00
 1.25000E+02 0.00000E+00 0.00000E+00 0.00000E+00 0.00000E+00
 1.40000E+02 0.00000E+00 0.00000E+00 0.00000E+00 0.00000E+00
 1.50000E+02 0.00000E+00 0.00000E+00 0.00000E+00 0.00000E+00
 1.75000E+02 0.00000E+00 0.00000E+00 0.00000E+00 0.00000E+00
 2.00000E+02 0.00000E+00 0.00000E+00 0.00000E+00 0.00000E+00
 2.20000E+02 0.00000E+00 0.00000E+00 0.00000E+00 0.00000E+00
 2.48500E+02 0.00000E+00 0.00000E+00 0.00000E+00 0.00000E+00
 2.48500E+02 0.00000E+00 0.00000E+00 0.00000E+00 0.00000E+00
 2.50000E+02 0.00000E+00 0.00000E+00 0.00000E+00 1.77189E-20
 2.50600E+02 0.00000E+00 0.00000E+00 0.00000E+00 2.47039E-20
 2.50600E+02 0.00000E+00 0.00000E+00 0.00000E+00 2.47039E-20
 2.53106E+02 0.00000E+00 0.00000E+00 1.41590E-20 5.32634E-20
 2.54431E+02 0.00000E+00 0.00000E+00 2.14566E-20 6.79797E-20
 2.56582E+02 0.00000E+00 0.00000E+00 3.30228E-20 9.12996E-20
 2.57925E+02 0.00000E+00 0.00000E+00 4.00855E-20 1.05537E-19
 2.60105E+02 0.00000E+00 0.00000E+00 5.12811E-20 1.28101E-19
 2.61467E+02 0.00000E+00 0.00000E+00 5.81185E-20 1.41879E-19
 2.63677E+02 0.00000E+00 0.00000E+00 6.89583E-20 1.63719E-19
 2.65058E+02 0.00000E+00 0.00000E+00 7.55792E-20 1.77056E-19
 2.67297E+02 0.00000E+00 0.00000E+00 8.60773E-20 1.98200E-19
 2.68697E+02 0.00000E+00 0.00000E+00 9.24904E-20 2.11115E-19
 2.70968E+02 0.00000E+00 0.00000E+00 1.02660E-19 2.31591E-19
 2.72387E+02 0.00000E+00 0.00000E+00 1.08874E-19 2.44100E-19
 2.74689E+02 0.00000E+00 0.00000E+00 1.18728E-19 2.63936E-19
 2.76127E+02 0.00000E+00 0.00000E+00 1.24750E-19 2.76055E-19
 2.78461E+02 0.00000E+00 0.00000E+00 1.34301E-19 2.95275E-19
 2.79919E+02 0.00000E+00 0.00000E+00 1.40138E-19 3.07020E-19
 2.82285E+02 0.00000E+00 0.00000E+00 1.49398E-19 3.25649E-19
 2.83763E+02 0.00000E+00 0.00000E+00 1.55058E-19 3.37034E-19
 2.86161E+02 0.00000E+00 0.00000E+00 1.64037E-19 3.55095E-19
 2.87660E+02 0.00000E+00 0.00000E+00 1.69527E-19 3.66135E-19
 2.90090E+02 0.00000E+00 0.00000E+00 1.78237E-19 3.83650E-19
 2.91610E+02 0.00000E+00 0.00000E+00 1.83562E-19 3.94357E-19
 2.94074E+02 0.00000E+00 0.00000E+00 1.92013E-19 4.11347E-19
 2.95614E+02 0.00000E+00 0.00000E+00 1.97180E-19 4.21734E-19
 2.98112E+02 0.00000E+00 0.00000E+00 2.05381E-19 4.38219E-19
 3.00000E+02 0.00000E+00 0.00000E+00 2.11434E-19 4.50387E-19
 3.02206E+02 0.00000E+00 0.00000E+00 2.18356E-19 4.64298E-19
 3.03788E+02 0.00000E+00 0.00000E+00 2.23224E-19 4.74081E-19
 3.06356E+02 0.00000E+00 0.00000E+00 2.30953E-19 4.89612E-19
 3.07960E+02 0.00000E+00 0.00000E+00 2.35680E-19 4.99110E-19
 3.10562E+02 0.00000E+00 0.00000E+00 2.43185E-19 5.14189E-19
 3.12189E+02 0.00000E+00 0.00000E+00 2.47776E-19 5.23413E-19
 3.14827E+02 0.00000E+00 0.00000E+00 2.55066E-19 5.38057E-19
 3.16476E+02 0.00000E+00 0.00000E+00 2.59526E-19 5.47016E-19
 3.19150E+02 0.00000E+00 0.00000E+00 2.66607E-19 5.61241E-19
 3.20822E+02 0.00000E+00 0.00000E+00 2.70940E-19 5.69944E-19
 3.23533E+02 0.00000E+00 0.00000E+00 2.77822E-19 5.83764E-19
 3.25227E+02 0.00000E+00 0.00000E+00 2.82032E-19 5.92220E-19
 3.26500E+02 0.00000E+00 0.00000E+00 2.85151E-19 5.98484E-19
 3.26500E+02 0.00000E+00 0.00000E+00 2.85151E-19 5.98484E-19
 3.27975E+02 0.00000E+00 3.09054E-21 2.88719E-19 6.05650E-19
 3.29765E+02 0.00000E+00 6.76792E-21 2.92982E-19 6.14210E-19
 3.32479E+02 0.00000E+00 1.22017E-20 2.99312E-19 6.26921E-19
 3.34293E+02 0.00000E+00 1.57406E-20 3.03455E-19 6.35240E-19
 3.37045E+02 0.00000E+00 2.09717E-20 3.09609E-19 6.47597E-19
 3.38884E+02 0.00000E+00 2.43799E-20 3.13637E-19 6.55684E-19
 3.41673E+02 0.00000E+00 2.94196E-20 3.19620E-19 6.67697E-19
 3.43537E+02 0.00000E+00 3.27042E-20 3.23536E-19 6.75560E-19
 3.46365E+02 0.00000E+00 3.75630E-20 3.29354E-19 6.87240E-19
 3.48255E+02 0.00000E+00 4.07309E-20 3.33163E-19 6.94887E-19
 3.50000E+02 0.00000E+00 4.36017E-20 3.36625E-19 7.01836E-19
 3.51121E+02 0.00000E+00 4.54186E-20 3.38821E-19 7.06245E-19
 3.53037E+02 0.00000E+00 4.84760E-20 3.42525E-19 7.13681E-19
 3.55943E+02 0.00000E+00 5.30019E-20 3.48028E-19 7.24727E-19
 3.57885E+02 0.00000E+00 5.59548E-20 3.51631E-19 7.31959E-19
 3.60830E+02 0.00000E+00 6.03275E-20 3.56983E-19 7.42703E-19
 3.62799E+02 0.00000E+00 6.31815E-20 3.60487E-19 7.49737E-19
 3.65785E+02 0.00000E+00 6.74091E-20 3.65694E-19 7.60187E-19
 3.67781E+02 0.00000E+00 7.01692E-20 3.69103E-19 7.67029E-19
 3.70808E+02 0.00000E+00 7.42593E-20 3.74167E-19 7.77194E-19
 3.72831E+02 0.00000E+00 7.69305E-20 3.77484E-19 7.83841E-19
 3.75900E+02 0.00000E+00 8.08900E-20 3.82411E-19 7.93425E-19
 3.77951E+02 0.00000E+00 8.34769E-20 3.85534E-19 7.99726E-19
 3.83141E+02 0.00000E+00 8.98192E-20 3.93259E-19 8.15301E-19
 3.88402E+02 0.00000E+00 9.59677E-20 4.00835E-19 8.30564E-19
 3.93736E+02 0.00000E+00 1.01932E-19 4.08261E-19 8.45511E-19
 3.96407E+02 0.00000E+00 1.04823E-19 4.11886E-19 8.52804E-19
 3.99142E+02 0.00000E+00 1.07720E-19 4.15533E-19 8.60139E-19
 4.00000E+02 0.00000E+00 1.08615E-19 4.16663E-19 8.62412E-19
 4.04623E+02 0.00000E+00 1.13341E-19 4.22650E-19 8.74445E-19
 4.10180E+02 0.00000E+00 1.18802E-19 4.29610E-19 8.88427E-19
 4.15812E+02 0.00000E+00 1.24110E-19 4.36410E-19 9.02080E-19
 4.21522E+02 0.00000E+00 1.29273E-19 4.43048E-19 9.15403E-19
 4.27310E+02 0.00000E+00 1.34295E-19 4.49522E-19 9.28392E-19
 4.33178E+02 0.00000E+00 1.39184E-19 4.55830E-19 9.41047E-19
 4.39127E+02 0.00000E+00 1.43944E-19 4.61973E-19 9.53367E-19
 4.45157E+02 0.00000E+00 1.48580E-19 4.67950E-19 9.65352E-19
 4.50000E+02 0.00000E+00 1.52173E-19 4.72575E-19 9.74624E-19
 4.51269E+02 0.00000E+00 1.53097E-19 4.73762E-19 9.77003E-19
 4.57466E+02 0.00000E+00 1.57499E-19 4.79408E-19 9.88317E-19
 4.63748E+02 0.00000E+00 1.61790E-19 4.84889E-19 9.99295E-19
 4.70116E+02 0.00000E+00 1.65974E-19 4.90205E-19 1.00994E-18
 4.76572E+02 0.00000E+00 1.70054E-19 4.95356E-19 1.02024E-18
 4.83116E+02 0.00000E+00 1.74034E-19 5.00342E-19 1.03021E-18
 4.89750E+02 0.00000E+00 1.77915E-19 5.05162E-19 1.03984E-18
 5.00000E+02 0.00000E+00 1.83550E-19 5.12168E-19 1.05382E-18
 5.12664E+02 0.00000E+00 1.90095E-19 5.20124E-19 1.06969E-18
 5.16468E+02 0.00000E+00 1.91975E-19 5.22373E-19 1.07417E-18
 5.40632E+02 0.00000E+00 2.03031E-19 5.35281E-19 1.09986E-18
 5.44644E+02 0.00000E+00 2.04725E-19 5.37212E-19 1.10370E-18
 5.50000E+02 0.00000E+00 2.06927E-19 5.39704E-19 1.10866E-18
 5.70127E+02 0.00000E+00 2.14626E-19 5.48247E-19 1.12563E-18
 5.74357E+02 0.00000E+00 2.16136E-19 5.49890E-19 1.12889E-18
 6.00000E+02 0.00000E+00 2.24580E-19 5.58844E-19 1.14666E-18
 6.05691E+02 0.00000E+00 2.26302E-19 5.60617E-19 1.15017E-18
 6.34030E+02 0.00000E+00 2.34152E-19 5.68414E-19 1.16558E-18
 6.38735E+02 0.00000E+00 2.35349E-19 5.69551E-19 1.16781E-18
 6.68619E+02 0.00000E+00 2.42326E-19 5.75832E-19 1.18012E-18
 6.73581E+02 0.00000E+00 2.43386E-19 5.76726E-19 1.18186E-18
 7.00000E+02 0.00000E+00 2.48588E-19 5.80832E-19 1.18979E-18
 7.05096E+02 0.00000E+00 2.49510E-19 5.81504E-19 1.19107E-18
 7.10328E+02 0.00000E+00 2.50431E-19 5.82156E-19 1.19231E-18
 7.43562E+02 0.00000E+00 2.55696E-19 5.85438E-19 1.19847E-18
 7.49080E+02 0.00000E+00 2.56477E-19 5.85847E-19 1.19923E-18
 7.84127E+02 0.00000E+00 2.60878E-19 5.87653E-19 1.20246E-18
 7.89946E+02 0.00000E+00 2.61520E-19 5.87835E-19 1.20276E-18
 8.00000E+02 0.00000E+00 2.62574E-19 5.88081E-19 1.20315E-18
 8.26905E+02 0.00000E+00 2.65073E-19 5.88358E-19 1.20343E-18
 8.33041E+02 0.00000E+00 2.65581E-19 5.88352E-19 1.20335E-18
 8.72017E+02 0.00000E+00 2.68326E-19 5.87825E-19 1.20183E-18
 8.78488E+02 0.00000E+00 2.68707E-19 5.87660E-19 1.20141E-18
 9.00000E+02 0.00000E+00 2.69832E-19 5.86950E-19 1.19971E-18
 9.19590E+02 0.00000E+00 2.70682E-19 5.86088E-19 1.19775E-18
 9.26413E+02 0.00000E+00 2.70941E-19 5.85739E-19 1.19698E-18
 9.69758E+02 0.00000E+00 2.72184E-19 5.83026E-19 1.19121E-18
 9.76954E+02 0.00000E+00 2.72328E-19 5.82511E-19 1.19013E-18
 1.00000E+03 0.00000E+00 2.72681E-19 5.80774E-19 1.18647E-18
 1.02266E+03 0.00000E+00 2.72881E-19 5.78962E-19 1.18261E-18
 1.03025E+03 0.00000E+00 2.72918E-19 5.78329E-19 1.18125E-18
