 PENELOPE (v. 2018)  Material data file ...............
 Material: BONE, CORTICAL (ICRP)  (120)                                  
 Mass density = 1.85000000E+00 g/cm**3
 Number of elements in the molecule =  9
   atomic number =  1,  atoms/molecule = 4.75402000E-01
   atomic number =  6,  atoms/molecule = 1.21899000E-01
   atomic number =  7,  atoms/molecule = 3.04112000E-02
   atomic number =  8,  atoms/molecule = 2.82845000E-01
   atomic number = 12,  atoms/molecule = 9.18228000E-04
   atomic number = 15,  atoms/molecule = 3.43791000E-02
   atomic number = 16,  atoms/molecule = 9.96713000E-04
   atomic number = 20,  atoms/molecule = 5.31337000E-02
   atomic number = 30,  atoms/molecule = 1.55160000E-05
 Mean excitation energy = 1.06400000E+02 eV
 Number of oscillators = 28 (E/P inelastic model)
   1  1.08103856E-01  6.13904243E+00  1.34860817E+01   0  30
   2  2.36168014E+00  1.36453699E+01  2.96589363E+01   0  30
   3  9.47308026E-01  2.77777646E+01  5.93822476E+01   0  30
   4  1.11776768E-01  4.63943122E+01  9.89309170E+01   0  30
   5  6.20640000E-05  9.10000000E+01  1.94067621E+02  30   7
   6  1.83645600E-03  9.20000000E+01  1.96200688E+02  12   2
   7  3.10320000E-05  9.40000000E+01  2.00465446E+02  30   6
   8  1.37516400E-01  1.34000000E+02  2.85794169E+02  15   4
   9  6.87582000E-02  1.35000000E+02  2.87914546E+02  15   3
  10  3.10320000E-05  1.41000000E+02  3.00698162E+02  30   5
  11  3.98685200E-03  1.68000000E+02  3.58279216E+02  16   4
  12  1.99342600E-03  1.70000000E+02  3.62544154E+02  16   3
  13  6.87582000E-02  1.91000000E+02  4.07337229E+02  15   2
  14  1.99342600E-03  2.32000000E+02  4.94765965E+02  16   2
  15  2.43798000E-01  2.88000000E+02  6.14212016E+02   6   1
  16  2.12534800E-01  3.49000000E+02  7.44295667E+02  20   4
  17  1.06267400E-01  3.53000000E+02  7.52818823E+02  20   3
  18  6.08224000E-02  4.03000000E+02  8.59445821E+02   7   1
  19  1.06267400E-01  4.41000000E+02  9.40487172E+02  20   2
  20  5.65690000E-01  5.38000000E+02  1.14736963E+03   8   1
  21  6.20640000E-05  1.02400000E+03  2.18379371E+03  30   4
  22  3.10320000E-05  1.04700000E+03  2.23284376E+03  30   3
  23  3.10320000E-05  1.19800000E+03  2.55486803E+03  30   2
  24  1.83645600E-03  1.30800000E+03  2.78945527E+03  12   1
  25  6.87582000E-02  2.14800000E+03  4.58084927E+03  15   1
  26  1.99342600E-03  2.47600000E+03  5.28034495E+03  16   1
  27  1.06267400E-01  4.04100000E+03  8.61788184E+03  20   1
  28  3.10320000E-05  9.66300000E+03  2.06074205E+04  30   1
 Number of shells = 28 (Compton IA model)
   1  1.08103856E-01  6.13904243E+00  1.93291471E+00   0  30
   2  2.36168014E+00  1.36453699E+01  5.41966246E-01   0  30
   3  9.47308026E-01  2.77777646E+01  5.01065287E-01   0  30
   4  1.11776768E-01  4.63943122E+01  4.90556110E-01   0  30
   5  6.20640000E-05  9.10000000E+01  1.85311000E-01  30   7
   6  1.83645600E-03  9.20000000E+01  3.41174000E-01  12   2
   7  3.10320000E-05  9.40000000E+01  1.82703000E-01  30   6
   8  1.37516400E-01  1.34000000E+02  1.34312000E-01  15   4
   9  6.87582000E-02  1.35000000E+02  1.33772000E-01  15   3
  10  3.10320000E-05  1.41000000E+02  2.95031000E-01  30   5
  11  3.98685200E-03  1.68000000E+02  1.22328000E-01  16   4
  12  1.99342600E-03  1.70000000E+02  1.21780000E-01  16   3
  13  6.87582000E-02  1.91000000E+02  2.49749000E-01  15   2
  14  1.99342600E-03  2.32000000E+02  2.29436000E-01  16   2
  15  2.43798000E-01  2.88000000E+02  1.53080000E-01   6   1
  16  2.12534800E-01  3.49000000E+02  9.01604000E-02  20   4
  17  1.06267400E-01  3.53000000E+02  8.95584000E-02  20   3
  18  6.08224000E-02  4.03000000E+02  1.30137000E-01   7   1
  19  1.06267400E-01  4.41000000E+02  1.72935000E-01  20   2
  20  5.65690000E-01  5.38000000E+02  1.13183000E-01   8   1
  21  6.20640000E-05  1.02400000E+03  5.47521000E-02  30   4
  22  3.10320000E-05  1.04700000E+03  5.39403000E-02  30   3
  23  3.10320000E-05  1.19800000E+03  1.06518000E-01  30   2
  24  1.83645600E-03  1.30800000E+03  7.42688000E-02  12   1
  25  6.87582000E-02  2.14800000E+03  5.88756000E-02  15   1
  26  1.99342600E-03  2.47600000E+03  5.50495000E-02  16   1
  27  1.06267400E-01  4.04100000E+03  4.36230000E-02  20   1
  28  3.10320000E-05  9.66300000E+03  2.84671000E-02  30   1
 *** RELAX:  Z =  1,  no. of shells =  1,  no. of transitions =    0
   1 1s1/2 1  1.36000E+01  0.00000E+00  8.48807E-01
 *** RELAX:  Z =  6,  no. of shells =  3,  no. of transitions =    8
   1 1s1/2 2  2.88000E+02  6.14394E-02  1.53080E-01
   2 2s1/2 2  1.65900E+01  0.00000E+00  8.03154E-01
   3 2p1/2 2  1.12600E+01  0.00000E+00  4.88373E-01
   1  3  0  5.61488E-04  2.77000E+02
   1  4  0  1.12060E-03  2.77000E+02
   1  2  2  4.13609E-01  2.55890E+02
   1  2  3  1.36190E-01  2.64460E+02
   1  2  4  2.71099E-01  2.64470E+02
   1  3  3  4.20748E-03  2.73030E+02
   1  3  4  1.10012E-01  2.73040E+02
   1  4  4  6.32008E-02  2.73050E+02
 *** RELAX:  Z =  7,  no. of shells =  4,  no. of transitions =    8
   1 1s1/2 2  4.03000E+02  9.27355E-02  1.30137E-01
   2 2s1/2 2  2.03300E+01  0.00000E+00  6.71894E-01
   3 2p1/2 2  1.45300E+01  0.00000E+00  4.06903E-01
   4 2p3/2 1  1.45300E+01  0.00000E+00  4.07257E-01
   1  3  0  1.09420E-03  3.92400E+02
   1  4  0  2.18181E-03  3.92400E+02
   1  2  2  2.65388E-01  3.58650E+02
   1  2  3  1.29999E-01  3.70250E+02
   1  2  4  2.58276E-01  3.70270E+02
   1  3  3  8.15943E-03  3.81850E+02
   1  3  4  2.12711E-01  3.81870E+02
   1  4  4  1.22190E-01  3.81890E+02
 *** RELAX:  Z =  8,  no. of shells =  4,  no. of transitions =    8
   1 1s1/2 2  5.38000E+02  1.33383E-01  1.13183E-01
   2 2s1/2 2  2.84800E+01  0.00000E+00  5.77977E-01
   3 2p1/2 2  1.36200E+01  0.00000E+00  3.49407E-01
   4 2p3/2 2  1.36200E+01  0.00000E+00  3.49884E-01
   1  3  0  1.90768E-03  5.24900E+02
   1  4  0  3.80027E-03  5.24900E+02
   1  2  2  1.78644E-01  4.78820E+02
   1  2  3  1.16224E-01  4.93860E+02
   1  2  4  2.30418E-01  4.93900E+02
   1  3  3  1.10822E-02  5.08900E+02
   1  3  4  2.91115E-01  5.08940E+02
   1  4  4  1.66809E-01  5.08980E+02
 *** RELAX:  Z = 12,  no. of shells =  5,  no. of transitions =   19
   1 1s1/2 2  1.30800E+03  3.30000E-01  7.42688E-02
   2 2s1/2 2  9.20000E+01  4.60000E-01  3.41174E-01
   3 2p1/2 2  5.40000E+01  3.00000E-02  1.91325E-01
   4 2p3/2 4  5.40000E+01  3.00000E-02  1.91891E-01
   5 3s1/2 2  7.64600E+00  0.00000E+00  1.58368E+00
   1  3  0  9.27327E-03  1.25344E+03
   1  4  0  1.84189E-02  1.25369E+03
   1  2  2  8.23145E-02  1.11558E+03
   1  2  3  8.60821E-02  1.14849E+03
   1  2  4  1.68838E-01  1.14880E+03
   1  2  5  1.26143E-02  1.19815E+03
   1  3  3  1.44975E-02  1.18140E+03
   1  3  4  3.75508E-01  1.18171E+03
   1  3  5  5.99323E-03  1.23106E+03
   1  4  4  2.14213E-01  1.18202E+03
   1  4  5  1.17657E-02  1.23137E+03
   1  5  5  4.81078E-04  1.28072E+03
   2  5  5  1.20110E-02  7.56800E+01
   2 30  0  1.78346E-04  3.31193E+01
   2 30 30  9.87810E-01  2.62261E+01
   3 30  0  3.41139E-06  4.96600E+01
   3 30 30  9.99997E-01  4.27700E+01
   4 30  0  3.17959E-06  4.93500E+01
   4 30 30  9.99997E-01  4.24600E+01
 *** RELAX:  Z = 15,  no. of shells =  7,  no. of transitions =   52
   1 1s1/2 2  2.14800E+03  4.70000E-01  5.88756E-02
   2 2s1/2 2  1.91000E+02  1.10000E+00  2.49749E-01
   3 2p1/2 2  1.35000E+02  7.00000E-02  1.33772E-01
   4 2p3/2 4  1.34000E+02  7.00000E-02  1.34312E-01
   5 3s1/2 2  1.61500E+01  0.00000E+00  8.94833E-01
   6 3p1/2 2  1.04900E+01  0.00000E+00  6.29989E-01
   7 3p3/2 1  1.04900E+01  0.00000E+00  6.32143E-01
   1  3  0  2.01220E-02  2.01270E+03
   1  4  0  3.98749E-02  2.01368E+03
   1  6  0  6.21469E-04  2.13910E+03
   1  7  0  1.23210E-03  2.13910E+03
   1  2  2  7.12845E-02  1.75610E+03
   1  2  3  7.70090E-02  1.80411E+03
   1  2  4  1.49534E-01  1.80507E+03
   1  2  5  1.42971E-02  1.92604E+03
   1  2  6  3.09277E-03  1.93487E+03
   1  2  7  6.00170E-03  1.93492E+03
   1  3  3  1.35789E-02  1.85212E+03
   1  3  4  3.44468E-01  1.85308E+03
   1  3  5  6.87552E-03  1.97405E+03
   1  3  6  1.05204E-03  1.98288E+03
   1  3  7  1.25152E-02  1.98293E+03
   1  4  4  1.96055E-01  1.85404E+03
   1  4  5  1.33713E-02  1.97501E+03
   1  4  6  1.25043E-02  1.98384E+03
   1  4  7  1.43892E-02  1.98389E+03
   1  5  5  7.12833E-04  2.09598E+03
   1  5  6  2.75938E-04  2.10481E+03
   1  5  7  5.34626E-04  2.10486E+03
   1  6  6  1.72459E-05  2.11364E+03
   1  6  7  3.67923E-04  2.11369E+03
   1  7  7  2.12700E-04  2.11374E+03
   2  6  0  1.42970E-05  1.89340E+02
   2  7  0  2.50490E-05  1.86400E+02
   2  5  5  9.19772E-03  1.52730E+02
   2  5  6  6.89081E-03  1.61560E+02
   2  5  7  1.36935E-02  1.61610E+02
   2  6  6  8.43928E-05  1.70390E+02
   2  6  7  2.67913E-06  1.70440E+02
   2  7  7  1.74150E-04  1.70490E+02
   3  5  0  1.07310E-04  1.23000E+02
   3  7  0  9.51832E-09  1.27700E+02
   3  5  5  3.84224E-02  1.04720E+02
   3  5  6  4.09857E-01  1.13550E+02
   3  5  7  2.66610E-02  1.13600E+02
   3  6  6  1.11541E-01  1.22380E+02
   3  6  7  4.01870E-01  1.22430E+02
   3  7  7  1.15410E-02  1.22480E+02
   4  5  0  1.00720E-04  1.21410E+02
   4  6  0  4.44840E-09  1.29070E+02
   4  7  0  4.38500E-09  1.26100E+02
   4  5  5  3.74626E-02  1.03760E+02
   4  5  6  1.31656E-02  1.12590E+02
   4  5  7  4.23652E-01  1.12640E+02
   4  6  6  1.74570E-03  1.21420E+02
   4  6  7  2.10574E-01  1.21470E+02
   4  7  7  3.13300E-01  1.21520E+02
   2 30  0  3.97670E-04  4.86832E+01
   2 30 30  9.69519E-01  3.40177E+01
 *** RELAX:  Z = 16,  no. of shells =  7,  no. of transitions =   53
   1 1s1/2 2  2.47600E+03  5.20000E-01  5.50495E-02
   2 2s1/2 2  2.32000E+02  1.30000E+00  2.29436E-01
   3 2p1/2 2  1.70000E+02  9.00000E-02  1.21780E-01
   4 2p3/2 4  1.68000E+02  9.00000E-02  1.22328E-01
   5 3s1/2 2  2.02000E+01  0.00000E+00  7.91379E-01
   6 3p1/2 2  1.03600E+01  0.00000E+00  5.49112E-01
   7 3p3/2 2  1.03600E+01  0.00000E+00  5.51437E-01
   1  3  0  2.47822E-02  2.30670E+03
   1  4  0  4.90644E-02  2.30789E+03
   1  6  0  1.15591E-03  2.46973E+03
   1  7  0  2.28902E-03  2.46407E+03
   1  2  2  6.79961E-02  2.00396E+03
   1  2  3  7.39684E-02  2.05720E+03
   1  2  4  1.43069E-01  2.05853E+03
   1  2  5  1.42819E-02  2.20898E+03
   1  2  6  4.23283E-03  2.21959E+03
   1  2  7  8.17425E-03  2.21968E+03
   1  3  3  1.31472E-02  2.11044E+03
   1  3  4  3.31099E-01  2.11177E+03
   1  3  5  6.86216E-03  2.26222E+03
   1  3  6  1.45266E-03  2.27283E+03
   1  3  7  1.70618E-02  2.27292E+03
   1  4  4  1.88236E-01  2.11310E+03
   1  4  5  1.32869E-02  2.26355E+03
   1  4  6  1.70457E-02  2.27416E+03
   1  4  7  1.96027E-02  2.27425E+03
   1  5  5  7.44545E-04  2.41400E+03
   1  5  6  3.95703E-04  2.42461E+03
   1  5  7  7.60167E-04  2.42470E+03
   1  6  6  3.64445E-05  2.43522E+03
   1  6  7  7.96592E-04  2.43531E+03
   1  7  7  4.58163E-04  2.43540E+03
   2  3  0  1.30089E-04  5.32400E+01
   2  4  0  3.19088E-04  5.45700E+01
   2  6  0  3.05768E-05  2.27170E+02
   2  7  0  5.14767E-05  2.24960E+02
   2  5  5  8.19136E-03  1.84070E+02
   2  5  6  8.39006E-03  1.94680E+02
   2  5  7  1.66434E-02  1.94770E+02
   2  6  6  1.45352E-04  2.05290E+02
   2  6  7  1.13569E-05  2.05380E+02
   2  7  7  3.03228E-04  2.05470E+02
   3  5  0  2.07430E-04  1.48660E+02
   3  7  0  3.45370E-08  1.60520E+02
   3  5  5  2.44984E-02  1.30830E+02
   3  5  6  3.20372E-01  1.41440E+02
   3  5  7  2.13995E-02  1.41530E+02
   3  6  6  1.35178E-01  1.52050E+02
   3  6  7  4.84421E-01  1.52140E+02
   3  7  7  1.39230E-02  1.52230E+02
   4  5  0  1.95079E-04  1.48660E+02
   4  6  0  1.61379E-08  1.60930E+02
   4  7  0  1.58869E-08  1.58730E+02
   4  5  5  2.39739E-02  1.29500E+02
   4  5  6  1.05269E-02  1.40110E+02
   4  5  7  3.31167E-01  1.40200E+02
   4  6  6  2.17960E-03  1.50720E+02
   4  6  7  2.53969E-01  1.50810E+02
   4  7  7  3.77988E-01  1.50900E+02
   2 30 30  9.65784E-01  3.72100E+01
 *** RELAX:  Z = 20,  no. of shells =  8,  no. of transitions =   72
   1 1s1/2 2  4.04100E+03  7.70000E-01  4.36230E-02
   2 2s1/2 2  4.41000E+02  2.50000E+00  1.72935E-01
   3 2p1/2 2  3.53000E+02  2.10000E-01  8.95584E-02
   4 2p3/2 4  3.49000E+02  2.10000E-01  9.01604E-02
   5 3s1/2 2  4.60000E+01  1.10000E+00  5.06050E-01
   6 3p1/2 2  2.80000E+01  1.20000E+00  3.28910E-01
   7 3p3/2 4  2.80000E+01  1.20000E+00  3.30822E-01
  10 4s1/2 2  6.11300E+00  0.00000E+00  1.93895E+00
   1  3  0  4.87196E-02  3.68813E+03
   1  4  0  9.61323E-02  3.69172E+03
   1  6  0  5.17776E-03  4.01276E+03
   1  7  0  1.02489E-02  4.01276E+03
   1  2  2  5.63485E-02  3.14678E+03
   1  2  3  6.20531E-02  3.22185E+03
   1  2  4  1.17762E-01  3.22569E+03
   1  2  5  1.42824E-02  3.52773E+03
   1  2  6  7.23290E-03  3.54688E+03
   1  2  7  1.37034E-02  3.54729E+03
   1  2 10  1.62556E-03  3.57544E+03
   1  3  3  1.12223E-02  3.29692E+03
   1  3  4  2.76841E-01  3.30076E+03
   1  3  5  6.82757E-03  3.60280E+03
   1  3  6  2.49498E-03  3.62195E+03
   1  3  7  2.84282E-02  3.62236E+03
   1  3 10  7.63476E-04  3.65051E+03
   1  4  4  1.56416E-01  3.30460E+03
   1  4  5  1.29934E-02  3.60664E+03
   1  4  6  2.83839E-02  3.62579E+03
   1  4  7  3.25412E-02  3.62620E+03
   1  4 10  1.45385E-03  3.65435E+03
   1  5  5  8.72175E-04  3.90868E+03
   1  5  6  7.79616E-04  3.92783E+03
   1  5  7  1.47733E-03  3.92824E+03
   1  5 10  1.99359E-04  3.95639E+03
   1  6  6  1.35157E-04  3.94698E+03
   1  6  7  2.93344E-03  3.94739E+03
   1  6 10  8.76773E-05  3.97554E+03
   1  7  7  1.69495E-03  3.94780E+03
   1  7 10  1.68035E-04  3.97595E+03
   2  3  0  9.42443E-05  7.50700E+01
   2  4  0  2.78501E-04  7.89100E+01
   2  6  0  2.04061E-04  4.15430E+02
   2  7  0  3.06021E-04  4.15800E+02
   2  3 10  1.42567E-02  6.96200E+01
   2  4 10  2.73691E-02  7.34600E+01
   2  5  5  1.31208E-02  3.27790E+02
   2  5  6  2.28754E-02  3.46940E+02
   2  5  7  4.52192E-02  3.47350E+02
   2  5 10  2.68682E-03  3.75500E+02
   2  6  6  5.21721E-04  3.66090E+02
   2  6  7  2.67985E-04  3.66500E+02
   2  6 10  2.04550E-03  3.94650E+02
   2  7  7  1.23299E-03  3.66910E+02
   2  7 10  4.04393E-03  3.95060E+02
   3  5  0  1.19571E-03  3.06430E+02
   3  7  0  8.74676E-07  3.27120E+02
   3 10  0  2.53632E-05  3.53590E+02
   3  5  5  1.08556E-02  2.52720E+02
   3  5  6  1.98917E-01  2.71870E+02
   3  5  7  1.45844E-02  2.72280E+02
   3  5 10  2.13424E-03  3.00430E+02
   3  6  6  1.61409E-01  2.91020E+02
   3  6  7  5.70643E-01  2.91430E+02
   3  6 10  2.29240E-02  3.19580E+02
   3  7  7  1.58751E-02  2.91840E+02
   3  7 10  1.43604E-03  3.19990E+02
   4  5  0  1.13130E-03  3.02690E+02
   4  6  0  4.05972E-07  3.23340E+02
   4  7  0  3.98812E-07  3.23710E+02
   4 10  0  2.39671E-05  3.49750E+02
   4  5  5  1.06175E-02  2.48880E+02
   4  5  6  6.94101E-03  2.68030E+02
   4  5  7  2.03179E-01  2.68440E+02
   4  5 10  2.10301E-03  2.96590E+02
   4  6  6  2.69658E-03  2.87180E+02
   4  6  7  2.95034E-01  2.87590E+02
   4  6 10  6.70949E-04  3.15740E+02
   4  7  7  4.53602E-01  2.88000E+02
   4  7 10  2.39998E-02  3.16150E+02
   2 30 30  8.65477E-01  3.53086E+01
 *** RELAX:  Z = 30,  no. of shells = 10,  no. of transitions =  165
   1 1s1/2 2  9.66300E+03  1.62000E+00  2.84671E-02
   2 2s1/2 2  1.19800E+03  4.80000E+00  1.06518E-01
   3 2p1/2 2  1.04700E+03  1.06000E+00  5.39403E-02
   4 2p3/2 4  1.02400E+03  6.80000E-01  5.47521E-02
   5 3s1/2 2  1.41000E+02  2.10000E+00  2.95031E-01
   6 3p1/2 2  9.40000E+01  2.10000E+00  1.82703E-01
   7 3p3/2 4  9.10000E+01  2.15000E+00  1.85311E-01
   8 3d3/2 4  1.20000E+01  0.00000E+00  1.62620E-01
   9 3d5/2 6  1.12000E+01  0.00000E+00  1.64072E-01
  10 4s1/2 2  9.39400E+00  0.00000E+00  1.38590E+00
   1  3  0  1.40620E-01  8.61582E+03
   1  4  0  2.73809E-01  8.63891E+03
   1  6  0  1.73890E-02  9.57203E+03
   1  7  0  3.39969E-02  9.57203E+03
   1  8  0  2.35079E-05  9.64990E+03
   1  9  0  3.39889E-05  9.64990E+03
   1  2  2  3.67202E-02  7.25360E+03
   1  2  3  4.08263E-02  7.38750E+03
   1  2  4  7.19520E-02  7.41200E+03
   1  2  5  9.96991E-03  8.30057E+03
   1  2  6  5.38738E-03  8.34426E+03
   1  2  7  9.40412E-03  8.34741E+03
   1  2  8  2.96221E-04  8.42115E+03
   1  2  9  3.99711E-04  8.42154E+03
   1  2 10  7.63732E-04  8.42939E+03
   1  3  3  7.18740E-03  7.52140E+03
   1  3  4  1.69423E-01  7.54590E+03
   1  3  5  4.68792E-03  8.43447E+03
   1  3  6  1.77372E-03  8.47816E+03
   1  3  7  1.90649E-02  8.48131E+03
   1  3  8  4.08651E-04  8.55505E+03
   1  3  9  1.50252E-03  8.55544E+03
   1  3 10  3.51539E-04  8.56329E+03
   1  4  4  9.33923E-02  7.57040E+03
   1  4  5  8.29767E-03  8.45897E+03
   1  4  6  1.90934E-02  8.50266E+03
   1  4  7  2.13838E-02  8.50581E+03
   1  4  8  1.86474E-03  8.57955E+03
   1  4  9  1.81482E-03  8.57994E+03
   1  4 10  6.22793E-04  8.58779E+03
   1  5  5  7.23926E-04  9.34754E+03
   1  5  6  6.75507E-04  9.39123E+03
   1  5  7  1.18265E-03  9.39438E+03
   1  5  8  3.48394E-05  9.46812E+03
   1  5  9  4.64528E-05  9.46851E+03
   1  5 10  1.10321E-04  9.47636E+03
   1  6  6  1.17498E-04  9.43492E+03
   1  6  7  2.41974E-03  9.43807E+03
   1  6  8  3.98312E-05  9.51181E+03
   1  6  9  1.53346E-04  9.51220E+03
   1  6 10  5.17798E-05  9.52005E+03
   1  7  7  1.45467E-03  9.44122E+03
   1  7  8  2.05688E-04  9.51496E+03
   1  7  9  1.95088E-04  9.51535E+03
   1  7 10  9.75440E-05  9.52320E+03
   1  8  9  1.34903E-05  9.58909E+03
   1  8 10  2.24862E-06  9.59694E+03
   1  9  9  5.37849E-06  9.58948E+03
   1  9 10  5.37849E-06  9.59733E+03
   1 10 10  3.56899E-06  9.60518E+03
   2  3  0  1.74001E-05  1.33900E+02
   2  4  0  8.30426E-05  1.58400E+02
   2  6  0  7.38615E-04  1.10700E+03
   2  7  0  1.17501E-03  1.10700E+03
   2  8  0  2.89562E-06  1.18570E+03
   2  9  0  3.91643E-06  1.18610E+03
   2  3  8  4.63817E-02  1.17050E+02
   2  3  9  7.44682E-02  1.17440E+02
   2  3 10  4.45393E-03  1.25290E+02
   2  4  6  5.79122E-02  6.46600E+01
   2  4  7  1.23579E-01  6.78100E+01
   2  4  8  1.16279E-01  1.41550E+02
   2  4  9  1.65355E-01  1.41940E+02
   2  4 10  7.83086E-03  1.49790E+02
   2  5  5  1.04028E-02  9.09540E+02
   2  5  6  1.90072E-02  9.53230E+02
   2  5  7  3.68897E-02  9.56380E+02
   2  5  8  2.10136E-02  1.03012E+03
   2  5  9  3.07792E-02  1.03051E+03
   2  5 10  1.42819E-03  1.03836E+03
   2  6  6  2.57527E-04  9.96920E+02
   2  6  7  6.47584E-04  1.00007E+03
   2  6  8  3.24333E-04  1.07381E+03
   2  6  9  6.39833E-03  1.07420E+03
   2  6 10  1.16589E-03  1.08205E+03
   2  7  7  9.60655E-04  1.00322E+03
   2  7  8  6.84507E-03  1.07696E+03
   2  7  9  4.87849E-03  1.07735E+03
   2  7 10  2.36888E-03  1.08520E+03
   2  8  8  6.36840E-04  1.15070E+03
   2  8  9  3.17905E-02  1.15109E+03
   2  8 10  1.20887E-03  1.15894E+03
   2  9  9  8.89946E-03  1.15148E+03
   2  9 10  1.80261E-03  1.15933E+03
   2 10 10  4.78573E-05  1.16718E+03
   3  5  0  4.61199E-03  9.06300E+02
   3  7  0  1.80819E-05  9.57400E+02
   3  8  0  5.87348E-03  1.03465E+03
   3 10  0  1.30420E-04  1.04189E+03
   3  5  5  3.29825E-03  7.75640E+02
   3  5  6  6.14430E-02  8.19330E+02
   3  5  7  5.22423E-03  8.22480E+02
   3  5  8  2.91704E-03  8.96220E+02
   3  5  9  6.72092E-03  8.96610E+02
   3  5 10  4.37367E-04  9.04460E+02
   3  6  6  5.36229E-02  8.63020E+02
   3  6  7  1.83350E-01  8.66170E+02
   3  6  8  6.88269E-02  9.39910E+02
   3  6  9  1.30427E-01  9.40300E+02
   3  6 10  4.72271E-03  9.48150E+02
   3  7  7  5.11146E-03  8.69320E+02
   3  7  8  8.27844E-02  9.43060E+02
   3  7  9  1.21167E-02  9.43450E+02
   3  7 10  3.57096E-04  9.51300E+02
   3  8  8  6.07200E-02  1.01680E+03
   3  8  9  2.74684E-01  1.01719E+03
   3  8 10  2.34621E-04  1.02504E+03
   3  9  9  1.27114E-02  1.01758E+03
   3  9 10  4.85515E-04  1.02543E+03
   3 10 10  1.60500E-05  1.03328E+03
   4  5  0  4.34963E-03  8.84300E+02
   4  6  0  9.21506E-06  9.31700E+02
   4  7  0  8.90995E-06  9.34500E+02
   4  8  0  4.96303E-04  1.01177E+03
   4  9  0  5.25973E-03  1.01177E+03
   4 10  0  1.13281E-04  1.01739E+03
   4  5  5  3.41111E-03  7.51140E+02
   4  5  6  2.40931E-03  7.94830E+02
   4  5  7  6.38932E-02  7.97980E+02
   4  5  8  4.57611E-03  8.71720E+02
   4  5  9  5.48252E-03  8.72110E+02
   4  5 10  4.49251E-04  8.79960E+02
   4  6  6  9.06422E-04  8.38520E+02
   4  6  7  9.79730E-02  8.41670E+02
   4  6  8  4.58386E-03  9.15410E+02
   4  6  9  4.34646E-02  9.15800E+02
   4  6 10  1.62995E-04  9.23650E+02
   4  7  7  1.43650E-01  8.44820E+02
   4  7  8  1.01080E-01  9.18560E+02
   4  7  9  1.52200E-01  9.18950E+02
   4  7 10  4.88211E-03  9.26800E+02
   4  8  8  1.03408E-02  9.92300E+02
   4  8  9  2.08677E-01  9.92690E+02
   4  8 10  3.33954E-04  1.00054E+03
   4  9  9  1.40861E-01  9.93080E+02
   4  9 10  4.09504E-04  1.00093E+03
   4 10 10  1.59031E-05  1.00878E+03
   5  8  8  4.12596E-03  1.03730E+02
   5  8  9  4.48130E-02  1.04120E+02
   5  8 10  3.32219E-02  1.11970E+02
   5  9  9  1.80365E-02  1.04510E+02
   5  9 10  5.22844E-02  1.12360E+02
   5 10 10  7.24709E-04  1.20210E+02
   6  8  0  2.88079E-05  7.68900E+01
   6 10  0  3.87618E-06  8.51300E+01
   6  8  8  1.49923E-01  6.00400E+01
   6  8  9  7.74954E-01  6.04300E+01
   6  8 10  4.38691E-02  6.82800E+01
   6  9  9  2.27158E-02  6.08200E+01
   6  9 10  8.49506E-03  6.86700E+01
   6 10 10  1.08770E-05  7.65200E+01
   7  8  0  2.62310E-06  7.37400E+01
   7  9  0  2.40950E-05  7.41300E+01
   7 10  0  1.82330E-06  8.19800E+01
   7  8  8  2.36088E-02  5.68900E+01
   7  8  9  5.37047E-01  5.72800E+01
   7  8 10  9.89369E-03  6.51300E+01
   7  9  9  3.81722E-01  5.76700E+01
   7  9 10  4.76979E-02  6.55200E+01
   7 10 10  1.48540E-06  7.33700E+01
   2 30 30  2.13965E-01  3.23196E+01
   3 30  0  6.48668E-10  2.45000E+01
   3 30 30  1.91549E-02  1.58900E+01
   5 30  0  3.41563E-05  4.59412E+01
   5 30 30  8.46759E-01  3.04671E+01
 *** Electron ionisation cross sections,  IZ =  1,  NSHELL =  1,  NDATA = 211
 1.00000E+01 0.00000E+00
 1.10000E+01 0.00000E+00
 1.25000E+01 0.00000E+00
 1.36000E+01 0.00000E+00
 1.36000E+01 0.00000E+00
 1.40000E+01 6.68213E-18
 1.49600E+01 2.04927E-17
 1.50000E+01 2.10082E-17
 1.51209E+01 2.25396E-17
 1.52834E+01 2.45392E-17
 1.54478E+01 2.64923E-17
 1.56139E+01 2.84001E-17
 1.57818E+01 3.02632E-17
 1.59515E+01 3.20827E-17
 1.61230E+01 3.38594E-17
 1.62963E+01 3.55942E-17
 1.64716E+01 3.72878E-17
 1.66487E+01 3.89411E-17
 1.68277E+01 4.05549E-17
 1.70086E+01 4.21299E-17
 1.71915E+01 4.36670E-17
 1.73763E+01 4.51668E-17
 1.75000E+01 4.61411E-17
 1.75632E+01 4.66301E-17
 1.77520E+01 4.80577E-17
 1.79429E+01 4.94501E-17
 1.81358E+01 5.08081E-17
 1.83308E+01 5.21323E-17
 1.85279E+01 5.34235E-17
 1.87272E+01 5.46822E-17
 1.89285E+01 5.59090E-17
 1.91320E+01 5.71046E-17
 1.93378E+01 5.82695E-17
 1.95457E+01 5.94043E-17
 1.97559E+01 6.05097E-17
 1.99683E+01 6.15861E-17
 2.00000E+01 6.17434E-17
 2.01830E+01 6.26341E-17
 2.04000E+01 6.36542E-17
 2.15129E+01 6.83199E-17
 2.20000E+01 7.01020E-17
 2.26866E+01 7.23786E-17
 2.39242E+01 7.58740E-17
 2.50000E+01 7.83735E-17
 2.52294E+01 7.88504E-17
 2.66058E+01 8.13528E-17
 2.80573E+01 8.34258E-17
 2.95879E+01 8.51035E-17
 3.00000E+01 8.54787E-17
 3.12021E+01 8.64118E-17
 3.29043E+01 8.73763E-17
 3.46994E+01 8.80222E-17
 3.50000E+01 8.80987E-17
 3.65924E+01 8.83733E-17
 3.85887E+01 8.84532E-17
 4.00000E+01 8.83651E-17
 4.06939E+01 8.82847E-17
 4.29140E+01 8.78890E-17
 4.50000E+01 8.73588E-17
 4.77241E+01 8.64921E-17
 5.00000E+01 8.56545E-17
 5.30733E+01 8.44075E-17
 5.50000E+01 8.35789E-17
 5.59687E+01 8.31526E-17
 5.90220E+01 8.17760E-17
 6.00000E+01 8.13271E-17
 6.22420E+01 8.02905E-17
 6.56376E+01 7.87170E-17
 6.92184E+01 7.70630E-17
 7.00000E+01 7.67036E-17
 7.29946E+01 7.53374E-17
 7.69769E+01 7.35585E-17
 8.00000E+01 7.22428E-17
 8.11763E+01 7.17393E-17
 8.56049E+01 6.98868E-17
 9.00000E+01 6.81176E-17
 9.52000E+01 6.61149E-17
 1.00000E+02 6.43529E-17
 1.10000E+02 6.09386E-17
 1.25000E+02 5.64146E-17
 1.40000E+02 5.25062E-17
 1.50000E+02 5.01862E-17
 1.75000E+02 4.52174E-17
 2.00000E+02 4.11550E-17
 2.20000E+02 3.84291E-17
 2.50000E+02 3.50738E-17
 3.00000E+02 3.06388E-17
 3.50000E+02 2.72262E-17
 4.00000E+02 2.45288E-17
 4.50000E+02 2.23357E-17
 5.00000E+02 2.05169E-17
 5.50000E+02 1.89870E-17
 6.00000E+02 1.76786E-17
 7.00000E+02 1.55585E-17
 8.00000E+02 1.39113E-17
 9.00000E+02 1.25956E-17
 1.00000E+03 1.15184E-17
 1.10000E+03 1.06168E-17
 1.25000E+03 9.51299E-18
 1.40000E+03 8.62911E-18
 1.50000E+03 8.12924E-18
 1.75000E+03 7.10966E-18
 2.00000E+03 6.32749E-18
 2.20000E+03 5.82130E-18
 2.50000E+03 5.20413E-18
 3.00000E+03 4.43338E-18
 3.50000E+03 3.87020E-18
 4.00000E+03 3.43989E-18
 4.50000E+03 3.09991E-18
 5.00000E+03 2.82421E-18
 5.50000E+03 2.59595E-18
 6.00000E+03 2.40370E-18
 7.00000E+03 2.09749E-18
 8.00000E+03 1.86416E-18
 9.00000E+03 1.68019E-18
 1.00000E+04 1.53128E-18
 1.10000E+04 1.40818E-18
 1.25000E+04 1.25879E-18
 1.40000E+04 1.14001E-18
 1.50000E+04 1.07343E-18
 1.75000E+04 9.38872E-19
 2.00000E+04 8.36586E-19
 2.20000E+04 7.70819E-19
 2.50000E+04 6.91124E-19
 3.00000E+04 5.92427E-19
 3.50000E+04 5.20938E-19
 4.00000E+04 4.66704E-19
 4.50000E+04 4.24118E-19
 5.00000E+04 3.89774E-19
 5.50000E+04 3.61475E-19
 6.00000E+04 3.37751E-19
 7.00000E+04 3.00190E-19
 8.00000E+04 2.71783E-19
 9.00000E+04 2.49549E-19
 1.00000E+05 2.31671E-19
 1.10000E+05 2.16988E-19
 1.25000E+05 1.99310E-19
 1.40000E+05 1.85387E-19
 1.50000E+05 1.77642E-19
 1.75000E+05 1.62158E-19
 2.00000E+05 1.50575E-19
 2.20000E+05 1.43237E-19
 2.50000E+05 1.34487E-19
 3.00000E+05 1.23941E-19
 3.50000E+05 1.16576E-19
 4.00000E+05 1.11201E-19
 4.50000E+05 1.07149E-19
 5.00000E+05 1.04019E-19
 5.50000E+05 1.01555E-19
 6.00000E+05 9.95853E-20
 7.00000E+05 9.66928E-20
 8.00000E+05 9.47394E-20
 9.00000E+05 9.33937E-20
 1.00000E+06 9.24584E-20
 1.10000E+06 9.18103E-20
 1.25000E+06 9.12068E-20
 1.40000E+06 9.08999E-20
 1.50000E+06 9.08076E-20
 1.75000E+06 9.08318E-20
 2.00000E+06 9.10800E-20
 2.20000E+06 9.13685E-20
 2.50000E+06 9.18840E-20
 3.00000E+06 9.28356E-20
 3.50000E+06 9.38051E-20
 4.00000E+06 9.47454E-20
 4.50000E+06 9.56399E-20
 5.00000E+06 9.64849E-20
 5.50000E+06 9.72788E-20
 6.00000E+06 9.80276E-20
 7.00000E+06 9.93999E-20
 8.00000E+06 1.00629E-19
 9.00000E+06 1.01739E-19
 1.00000E+07 1.02750E-19
 1.10000E+07 1.03676E-19
 1.25000E+07 1.04932E-19
 1.40000E+07 1.06060E-19
 1.50000E+07 1.06750E-19
 1.75000E+07 1.08309E-19
 2.00000E+07 1.09668E-19
 2.20000E+07 1.10645E-19
 2.50000E+07 1.11961E-19
 3.00000E+07 1.13848E-19
 3.50000E+07 1.15451E-19
 4.00000E+07 1.16843E-19
 4.50000E+07 1.18076E-19
 5.00000E+07 1.19177E-19
 5.50000E+07 1.20178E-19
 6.00000E+07 1.21092E-19
 7.00000E+07 1.22713E-19
 8.00000E+07 1.24118E-19
 9.00000E+07 1.25363E-19
 1.00000E+08 1.26473E-19
 1.10000E+08 1.27479E-19
 1.25000E+08 1.28831E-19
 1.40000E+08 1.30030E-19
 1.50000E+08 1.30756E-19
 1.75000E+08 1.32387E-19
 2.00000E+08 1.33800E-19
 2.20000E+08 1.34813E-19
 2.50000E+08 1.36166E-19
 3.00000E+08 1.38097E-19
 3.50000E+08 1.39732E-19
 4.00000E+08 1.41149E-19
 4.50000E+08 1.42399E-19
 5.00000E+08 1.43517E-19
 5.50000E+08 1.44528E-19
 6.00000E+08 1.45451E-19
 7.00000E+08 1.47087E-19
 8.00000E+08 1.48504E-19
 9.00000E+08 1.49754E-19
 1.00000E+09 1.50873E-19
 *** Electron ionisation cross sections,  IZ =  6,  NSHELL =  1,  NDATA = 201
 4.00000E+01 0.00000E+00
 4.50000E+01 0.00000E+00
 5.00000E+01 0.00000E+00
 5.50000E+01 0.00000E+00
 6.00000E+01 0.00000E+00
 7.00000E+01 0.00000E+00
 8.00000E+01 0.00000E+00
 9.00000E+01 0.00000E+00
 1.00000E+02 0.00000E+00
 1.10000E+02 0.00000E+00
 1.25000E+02 0.00000E+00
 1.40000E+02 0.00000E+00
 1.50000E+02 0.00000E+00
 1.75000E+02 0.00000E+00
 2.00000E+02 0.00000E+00
 2.20000E+02 0.00000E+00
 2.50000E+02 0.00000E+00
 2.88000E+02 0.00000E+00
 2.88000E+02 0.00000E+00
 2.90880E+02 6.47323E-21
 2.94874E+02 1.52506E-20
 2.98924E+02 2.39164E-20
 3.00000E+02 2.61817E-20
 3.03028E+02 3.24693E-20
 3.07189E+02 4.09082E-20
 3.11408E+02 4.92320E-20
 3.15684E+02 5.74399E-20
 3.20019E+02 6.55311E-20
 3.24413E+02 7.35052E-20
 3.28868E+02 8.13616E-20
 3.33384E+02 8.91001E-20
 3.37962E+02 9.67204E-20
 3.42603E+02 1.04222E-19
 3.47307E+02 1.11606E-19
 3.50000E+02 1.15735E-19
 3.52077E+02 1.18872E-19
 3.56911E+02 1.26019E-19
 3.61812E+02 1.33049E-19
 3.66781E+02 1.39961E-19
 3.71817E+02 1.46756E-19
 3.76923E+02 1.53435E-19
 3.82099E+02 1.59997E-19
 3.87346E+02 1.66443E-19
 3.92665E+02 1.72774E-19
 3.98057E+02 1.78991E-19
 4.00000E+02 1.81183E-19
 4.03523E+02 1.85093E-19
 4.09064E+02 1.91083E-19
 4.14681E+02 1.96959E-19
 4.20376E+02 2.02724E-19
 4.26148E+02 2.08377E-19
 4.32000E+02 2.13919E-19
 4.50000E+02 2.29866E-19
 4.55568E+02 2.34498E-19
 4.80421E+02 2.53570E-19
 5.00000E+02 2.66888E-19
 5.06631E+02 2.71086E-19
 5.34270E+02 2.87060E-19
 5.50000E+02 2.95159E-19
 5.63417E+02 3.01560E-19
 5.94154E+02 3.14653E-19
 6.00000E+02 3.16917E-19
 6.26568E+02 3.26382E-19
 6.60750E+02 3.36761E-19
 7.00000E+02 3.46521E-19
 7.34811E+02 3.53527E-19
 7.74899E+02 3.59981E-19
 8.00000E+02 3.63267E-19
 8.17173E+02 3.65218E-19
 8.61754E+02 3.69289E-19
 9.00000E+02 3.71784E-19
 9.08767E+02 3.72242E-19
 9.58345E+02 3.74134E-19
 1.00000E+03 3.74923E-19
 1.01063E+03 3.75023E-19
 1.06576E+03 3.74965E-19
 1.10000E+03 3.74503E-19
 1.12390E+03 3.74013E-19
 1.18522E+03 3.72222E-19
 1.25000E+03 3.69649E-19
 1.31807E+03 3.66381E-19
 1.38997E+03 3.62457E-19
 1.40000E+03 3.61880E-19
 1.46580E+03 3.57943E-19
 1.50000E+03 3.55816E-19
 1.54577E+03 3.52900E-19
 1.63010E+03 3.47385E-19
 1.71903E+03 3.41451E-19
 1.75000E+03 3.39373E-19
 1.81281E+03 3.35154E-19
 1.91171E+03 3.28538E-19
 2.00000E+03 3.22695E-19
 2.01600E+03 3.21645E-19
 2.20000E+03 3.09822E-19
 2.50000E+03 2.91763E-19
 3.00000E+03 2.65389E-19
 3.50000E+03 2.43165E-19
 4.00000E+03 2.24462E-19
 4.50000E+03 2.08493E-19
 5.00000E+03 1.95011E-19
 5.50000E+03 1.83330E-19
 6.00000E+03 1.73024E-19
 7.00000E+03 1.55762E-19
 8.00000E+03 1.41862E-19
 9.00000E+03 1.30440E-19
 1.00000E+04 1.20843E-19
 1.10000E+04 1.12710E-19
 1.25000E+04 1.02561E-19
 1.40000E+04 9.42406E-20
 1.50000E+04 8.94889E-20
 1.75000E+04 7.96769E-20
 2.00000E+04 7.20343E-20
 2.20000E+04 6.70304E-20
 2.50000E+04 6.08415E-20
 3.00000E+04 5.30252E-20
