 PENELOPE (v. 2018)  Material data file ...............
 Material: SpinalDisc-GeantIV                                            
 Mass density = 1.10000000E+00 g/cm**3
 Number of elements in the molecule =  8
   atomic number =  1,  atoms/molecule = 1.00000000E+00
   atomic number =  6,  atoms/molecule = 8.65370806E-02
   atomic number =  7,  atoms/molecule = 1.64901180E-02
   atomic number =  8,  atoms/molecule = 4.88232077E-01
   atomic number = 11,  atoms/molecule = 2.28337502E-03
   atomic number = 15,  atoms/molecule = 7.45712802E-03
   atomic number = 16,  atoms/molecule = 2.94675435E-03
   atomic number = 17,  atoms/molecule = 8.88412123E-04
 Mean excitation energy = 7.21256677E+01 eV
 Number of oscillators = 16 (E/P inelastic model)
   1  2.28337502E-03  5.13900000E+00  1.05289547E+01  11  30
   2  3.40206170E+00  1.36367519E+01  2.87485029E+01   0  30
   3  1.03081497E+00  2.82384800E+01  5.81522747E+01   0  30
   4  4.56675004E-03  6.60000000E+01  1.35143189E+02  11  30
   5  7.73375503E-02  1.53110403E+02  3.10102080E+02   0  30
   6  3.55364849E-03  2.06000000E+02  4.21807746E+02  17   4
   7  1.77682425E-03  2.08000000E+02  4.25902841E+02  17   3
   8  5.89350870E-03  2.32000000E+02  4.75045702E+02  16   2
   9  1.77682425E-03  2.77000000E+02  5.67187848E+02  17   2
  10  1.73074161E-01  2.88000000E+02  5.89719970E+02   6   1
  11  3.29802361E-02  4.03000000E+02  8.25187680E+02   7   1
  12  9.76464154E-01  5.38000000E+02  1.10163947E+03   8   1
  13  4.56675004E-03  1.07500000E+03  2.20117998E+03  11   1
  14  1.49142560E-02  2.14800000E+03  4.39826473E+03  15   1
  15  5.89350870E-03  2.47600000E+03  5.06988049E+03  16   1
  16  1.77682425E-03  2.82900000E+03  5.79268653E+03  17   1
 Number of shells = 16 (Compton IA model)
   1  2.28337502E-03  5.13900000E+00  2.06434000E+00  11  30
   2  3.40206170E+00  1.36367519E+01  5.32447806E-01   0  30
   3  1.03081497E+00  2.82384800E+01  5.77733199E-01   0  30
   4  4.56675004E-03  6.60000000E+01  3.89372000E-01  11  30
   5  7.73375503E-02  1.53110403E+02  1.53687972E-01   0  30
   6  3.55364849E-03  2.06000000E+02  1.12363000E-01  17   4
   7  1.77682425E-03  2.08000000E+02  1.11802000E-01  17   3
   8  5.89350870E-03  2.32000000E+02  2.29436000E-01  16   2
   9  1.77682425E-03  2.77000000E+02  2.12221000E-01  17   2
  10  1.73074161E-01  2.88000000E+02  1.53080000E-01   6   1
  11  3.29802361E-02  4.03000000E+02  1.30137000E-01   7   1
  12  9.76464154E-01  5.38000000E+02  1.13183000E-01   8   1
  13  4.56675004E-03  1.07500000E+03  8.13091000E-02  11   1
  14  1.49142560E-02  2.14800000E+03  5.88756000E-02  15   1
  15  5.89350870E-03  2.47600000E+03  5.50495000E-02  16   1
  16  1.77682425E-03  2.82900000E+03  5.16812000E-02  17   1
 *** RELAX:  Z =  1,  no. of shells =  1,  no. of transitions =    0
   1 1s1/2 1  1.36000E+01  0.00000E+00  8.48807E-01
 *** RELAX:  Z =  6,  no. of shells =  3,  no. of transitions =    8
   1 1s1/2 2  2.88000E+02  6.14394E-02  1.53080E-01
   2 2s1/2 2  1.65900E+01  0.00000E+00  8.03154E-01
   3 2p1/2 2  1.12600E+01  0.00000E+00  4.88373E-01
   1  3  0  5.61488E-04  2.77000E+02
   1  4  0  1.12060E-03  2.77000E+02
   1  2  2  4.13609E-01  2.55890E+02
   1  2  3  1.36190E-01  2.64460E+02
   1  2  4  2.71099E-01  2.64470E+02
   1  3  3  4.20748E-03  2.73030E+02
   1  3  4  1.10012E-01  2.73040E+02
   1  4  4  6.32008E-02  2.73050E+02
 *** RELAX:  Z =  7,  no. of shells =  4,  no. of transitions =    8
   1 1s1/2 2  4.03000E+02  9.27355E-02  1.30137E-01
   2 2s1/2 2  2.03300E+01  0.00000E+00  6.71894E-01
   3 2p1/2 2  1.45300E+01  0.00000E+00  4.06903E-01
   4 2p3/2 1  1.45300E+01  0.00000E+00  4.07257E-01
   1  3  0  1.09420E-03  3.92400E+02
   1  4  0  2.18181E-03  3.92400E+02
   1  2  2  2.65388E-01  3.58650E+02
   1  2  3  1.29999E-01  3.70250E+02
   1  2  4  2.58276E-01  3.70270E+02
   1  3  3  8.15943E-03  3.81850E+02
   1  3  4  2.12711E-01  3.81870E+02
   1  4  4  1.22190E-01  3.81890E+02
 *** RELAX:  Z =  8,  no. of shells =  4,  no. of transitions =    8
   1 1s1/2 2  5.38000E+02  1.33383E-01  1.13183E-01
   2 2s1/2 2  2.84800E+01  0.00000E+00  5.77977E-01
   3 2p1/2 2  1.36200E+01  0.00000E+00  3.49407E-01
   4 2p3/2 2  1.36200E+01  0.00000E+00  3.49884E-01
   1  3  0  1.90768E-03  5.24900E+02
   1  4  0  3.80027E-03  5.24900E+02
   1  2  2  1.78644E-01  4.78820E+02
   1  2  3  1.16224E-01  4.93860E+02
   1  2  4  2.30418E-01  4.93900E+02
   1  3  3  1.10822E-02  5.08900E+02
   1  3  4  2.91115E-01  5.08940E+02
   1  4  4  1.66809E-01  5.08980E+02
 *** RELAX:  Z = 11,  no. of shells =  5,  no. of transitions =   13
   1 1s1/2 2  1.07500E+03  2.80000E-01  8.13091E-02
   2 2s1/2 2  6.60000E+01  2.80000E-01  3.89372E-01
   3 2p1/2 2  3.40000E+01  2.00000E-02  2.24103E-01
   4 2p3/2 4  3.40000E+01  2.00000E-02  2.24717E-01
   5 3s1/2 1  5.13900E+00  0.00000E+00  2.06434E+00
   1  3  0  6.68996E-03  1.04100E+03
   1  4  0  1.32959E-02  1.07110E+03
   1  2  2  8.70552E-02  9.35040E+02
   1  2  3  8.90021E-02  9.63100E+02
   1  2  4  1.75052E-01  9.63300E+02
   1  2  5  5.73825E-03  9.94370E+02
   1  3  3  1.46296E-02  9.91160E+02
   1  3  4  3.82369E-01  9.91360E+02
   1  3  5  2.69932E-03  1.02243E+03
   1  4  4  2.18165E-01  9.91560E+02
   1  4  5  5.30407E-03  1.02263E+03
   2 30  0  1.16019E-04  2.81944E+01
   2 30 30  9.99884E-01  2.30430E+01
 *** RELAX:  Z = 15,  no. of shells =  7,  no. of transitions =   52
   1 1s1/2 2  2.14800E+03  4.70000E-01  5.88756E-02
   2 2s1/2 2  1.91000E+02  1.10000E+00  2.49749E-01
   3 2p1/2 2  1.35000E+02  7.00000E-02  1.33772E-01
   4 2p3/2 4  1.34000E+02  7.00000E-02  1.34312E-01
   5 3s1/2 2  1.61500E+01  0.00000E+00  8.94833E-01
   6 3p1/2 2  1.04900E+01  0.00000E+00  6.29989E-01
   7 3p3/2 1  1.04900E+01  0.00000E+00  6.32143E-01
   1  3  0  2.01220E-02  2.01270E+03
   1  4  0  3.98749E-02  2.01368E+03
   1  6  0  6.21469E-04  2.13910E+03
   1  7  0  1.23210E-03  2.13910E+03
   1  2  2  7.12845E-02  1.75610E+03
   1  2  3  7.70090E-02  1.80411E+03
   1  2  4  1.49534E-01  1.80507E+03
   1  2  5  1.42971E-02  1.92604E+03
   1  2  6  3.09277E-03  1.93487E+03
   1  2  7  6.00170E-03  1.93492E+03
   1  3  3  1.35789E-02  1.85212E+03
   1  3  4  3.44468E-01  1.85308E+03
   1  3  5  6.87552E-03  1.97405E+03
   1  3  6  1.05204E-03  1.98288E+03
   1  3  7  1.25152E-02  1.98293E+03
   1  4  4  1.96055E-01  1.85404E+03
   1  4  5  1.33713E-02  1.97501E+03
   1  4  6  1.25043E-02  1.98384E+03
   1  4  7  1.43892E-02  1.98389E+03
   1  5  5  7.12833E-04  2.09598E+03
   1  5  6  2.75938E-04  2.10481E+03
   1  5  7  5.34626E-04  2.10486E+03
   1  6  6  1.72459E-05  2.11364E+03
   1  6  7  3.67923E-04  2.11369E+03
   1  7  7  2.12700E-04  2.11374E+03
   2  6  0  1.42970E-05  1.89340E+02
   2  7  0  2.50490E-05  1.86400E+02
   2  5  5  9.19772E-03  1.52730E+02
   2  5  6  6.89081E-03  1.61560E+02
   2  5  7  1.36935E-02  1.61610E+02
   2  6  6  8.43928E-05  1.70390E+02
   2  6  7  2.67913E-06  1.70440E+02
   2  7  7  1.74150E-04  1.70490E+02
   3  5  0  1.07310E-04  1.23000E+02
   3  7  0  9.51832E-09  1.27700E+02
   3  5  5  3.84224E-02  1.04720E+02
   3  5  6  4.09857E-01  1.13550E+02
   3  5  7  2.66610E-02  1.13600E+02
   3  6  6  1.11541E-01  1.22380E+02
   3  6  7  4.01870E-01  1.22430E+02
   3  7  7  1.15410E-02  1.22480E+02
   4  5  0  1.00720E-04  1.21410E+02
   4  6  0  4.44840E-09  1.29070E+02
   4  7  0  4.38500E-09  1.26100E+02
   4  5  5  3.74626E-02  1.03760E+02
   4  5  6  1.31656E-02  1.12590E+02
   4  5  7  4.23652E-01  1.12640E+02
   4  6  6  1.74570E-03  1.21420E+02
   4  6  7  2.10574E-01  1.21470E+02
   4  7  7  3.13300E-01  1.21520E+02
   2 30  0  3.97670E-04  4.86832E+01
   2 30 30  9.69519E-01  3.40177E+01
 *** RELAX:  Z = 16,  no. of shells =  7,  no. of transitions =   53
   1 1s1/2 2  2.47600E+03  5.20000E-01  5.50495E-02
   2 2s1/2 2  2.32000E+02  1.30000E+00  2.29436E-01
   3 2p1/2 2  1.70000E+02  9.00000E-02  1.21780E-01
   4 2p3/2 4  1.68000E+02  9.00000E-02  1.22328E-01
   5 3s1/2 2  2.02000E+01  0.00000E+00  7.91379E-01
   6 3p1/2 2  1.03600E+01  0.00000E+00  5.49112E-01
   7 3p3/2 2  1.03600E+01  0.00000E+00  5.51437E-01
   1  3  0  2.47822E-02  2.30670E+03
   1  4  0  4.90644E-02  2.30789E+03
   1  6  0  1.15591E-03  2.46973E+03
   1  7  0  2.28902E-03  2.46407E+03
   1  2  2  6.79961E-02  2.00396E+03
   1  2  3  7.39684E-02  2.05720E+03
   1  2  4  1.43069E-01  2.05853E+03
   1  2  5  1.42819E-02  2.20898E+03
   1  2  6  4.23283E-03  2.21959E+03
   1  2  7  8.17425E-03  2.21968E+03
   1  3  3  1.31472E-02  2.11044E+03
   1  3  4  3.31099E-01  2.11177E+03
   1  3  5  6.86216E-03  2.26222E+03
   1  3  6  1.45266E-03  2.27283E+03
   1  3  7  1.70618E-02  2.27292E+03
   1  4  4  1.88236E-01  2.11310E+03
   1  4  5  1.32869E-02  2.26355E+03
   1  4  6  1.70457E-02  2.27416E+03
   1  4  7  1.96027E-02  2.27425E+03
   1  5  5  7.44545E-04  2.41400E+03
   1  5  6  3.95703E-04  2.42461E+03
   1  5  7  7.60167E-04  2.42470E+03
   1  6  6  3.64445E-05  2.43522E+03
   1  6  7  7.96592E-04  2.43531E+03
   1  7  7  4.58163E-04  2.43540E+03
   2  3  0  1.30089E-04  5.32400E+01
   2  4  0  3.19088E-04  5.45700E+01
   2  6  0  3.05768E-05  2.27170E+02
   2  7  0  5.14767E-05  2.24960E+02
   2  5  5  8.19136E-03  1.84070E+02
   2  5  6  8.39006E-03  1.94680E+02
   2  5  7  1.66434E-02  1.94770E+02
   2  6  6  1.45352E-04  2.05290E+02
   2  6  7  1.13569E-05  2.05380E+02
   2  7  7  3.03228E-04  2.05470E+02
   3  5  0  2.07430E-04  1.48660E+02
   3  7  0  3.45370E-08  1.60520E+02
   3  5  5  2.44984E-02  1.30830E+02
   3  5  6  3.20372E-01  1.41440E+02
   3  5  7  2.13995E-02  1.41530E+02
   3  6  6  1.35178E-01  1.52050E+02
   3  6  7  4.84421E-01  1.52140E+02
   3  7  7  1.39230E-02  1.52230E+02
   4  5  0  1.95079E-04  1.48660E+02
   4  6  0  1.61379E-08  1.60930E+02
   4  7  0  1.58869E-08  1.58730E+02
   4  5  5  2.39739E-02  1.29500E+02
   4  5  6  1.05269E-02  1.40110E+02
   4  5  7  3.31167E-01  1.40200E+02
   4  6  6  2.17960E-03  1.50720E+02
   4  6  7  2.53969E-01  1.50810E+02
   4  7  7  3.77988E-01  1.50900E+02
   2 30 30  9.65784E-01  3.72100E+01
 *** RELAX:  Z = 17,  no. of shells =  7,  no. of transitions =   53
   1 1s1/2 2  2.82900E+03  5.70000E-01  5.16812E-02
   2 2s1/2 2  2.77000E+02  1.50000E+00  2.12221E-01
   3 2p1/2 2  2.08000E+02  1.10000E-01  1.11802E-01
   4 2p3/2 4  2.06000E+02  1.10000E-01  1.12363E-01
   5 3s1/2 2  2.45400E+01  0.00000E+00  7.10882E-01
   6 3p1/2 2  1.29700E+01  0.00000E+00  4.87831E-01
   7 3p3/2 3  1.29700E+01  0.00000E+00  4.90323E-01
   1  3  0  2.99473E-02  2.62085E+03
   1  4  0  5.92357E-02  2.62244E+03
   1  6  0  1.90852E-03  2.81560E+03
   1  7  0  3.77764E-03  2.81560E+03
   1  2  2  6.47454E-02  2.26880E+03
   1  2  3  7.07430E-02  2.32737E+03
   1  2  4  1.36245E-01  2.32915E+03
   1  2  5  1.40930E-02  2.51201E+03
   1  2  6  5.34453E-03  2.52443E+03
   1  2  7  1.02721E-02  2.52456E+03
   1  3  3  1.26685E-02  2.38594E+03
   1  3  4  3.17212E-01  2.38772E+03
   1  3  5  6.76930E-03  2.57058E+03
   1  3  6  1.84144E-03  2.58300E+03
   1  3  7  2.14432E-02  2.58313E+03
   1  4  4  1.80107E-01  2.38950E+03
   1  4  5  1.30550E-02  2.57236E+03
   1  4  6  2.14401E-02  2.58478E+03
   1  4  7  2.46207E-02  2.58491E+03
   1  5  5  7.57429E-04  2.75522E+03
   1  5  6  5.11276E-04  2.76764E+03
   1  5  7  9.89421E-04  2.76777E+03
   1  6  6  6.15382E-05  2.78006E+03
   1  6  7  1.40118E-03  2.78019E+03
   1  7  7  8.09499E-04  2.78032E+03
   2  3  0  1.32240E-04  5.85700E+01
   2  4  0  3.38699E-04  6.03500E+01
   2  6  0  5.77589E-05  2.68080E+02
   2  7  0  9.34599E-05  2.66620E+02
   2  5  5  7.21657E-03  2.18370E+02
   2  5  6  9.41985E-03  2.30790E+02
   2  5  7  1.86655E-02  2.30920E+02
   2  6  6  2.03716E-04  2.43210E+02
   2  6  7  3.00734E-05  2.43340E+02
   2  7  7  4.33629E-04  2.43470E+02
   3  5  0  3.58568E-04  1.84140E+02
   3  7  0  9.97973E-08  1.96310E+02
   3  5  5  1.68707E-02  1.59800E+02
   3  5  6  2.61091E-01  1.72220E+02
   3  5  7  1.78966E-02  1.72350E+02
   3  6  6  1.50680E-01  1.84640E+02
   3  6  7  5.37786E-01  1.84770E+02
   3  7  7  1.53179E-02  1.84900E+02
   4  5  0  3.37841E-04  1.82600E+02
   4  6  0  4.66351E-08  1.95370E+02
   4  7  0  4.58471E-08  1.93910E+02
   4  5  5  1.66045E-02  1.58020E+02
   4  5  6  8.74747E-03  1.70440E+02
   4  5  7  2.69969E-01  1.70570E+02
   4  6  6  2.48799E-03  1.82860E+02
   4  6  7  2.81903E-01  1.82990E+02
   4  7  7  4.19951E-01  1.83120E+02
   2 30 30  9.63409E-01  4.05815E+01
 *** Electron ionisation cross sections,  IZ =  1,  NSHELL =  1,  NDATA = 211
 1.00000E+01 0.00000E+00
 1.10000E+01 0.00000E+00
 1.25000E+01 0.00000E+00
 1.36000E+01 0.00000E+00
 1.36000E+01 0.00000E+00
 1.40000E+01 6.68213E-18
 1.49600E+01 2.04927E-17
 1.50000E+01 2.10082E-17
 1.51209E+01 2.25396E-17
 1.52834E+01 2.45392E-17
 1.54478E+01 2.64923E-17
 1.56139E+01 2.84001E-17
 1.57818E+01 3.02632E-17
 1.59515E+01 3.20827E-17
 1.61230E+01 3.38594E-17
 1.62963E+01 3.55942E-17
 1.64716E+01 3.72878E-17
 1.66487E+01 3.89411E-17
 1.68277E+01 4.05549E-17
 1.70086E+01 4.21299E-17
 1.71915E+01 4.36670E-17
 1.73763E+01 4.51668E-17
 1.75000E+01 4.61411E-17
 1.75632E+01 4.66301E-17
 1.77520E+01 4.80577E-17
 1.79429E+01 4.94501E-17
 1.81358E+01 5.08081E-17
 1.83308E+01 5.21323E-17
 1.85279E+01 5.34235E-17
 1.87272E+01 5.46822E-17
 1.89285E+01 5.59090E-17
 1.91320E+01 5.71046E-17
 1.93378E+01 5.82695E-17
 1.95457E+01 5.94043E-17
 1.97559E+01 6.05097E-17
 1.99683E+01 6.15861E-17
 2.00000E+01 6.17434E-17
 2.01830E+01 6.26341E-17
 2.04000E+01 6.36542E-17
 2.15129E+01 6.83199E-17
 2.20000E+01 7.01020E-17
 2.26866E+01 7.23786E-17
 2.39242E+01 7.58740E-17
 2.50000E+01 7.83735E-17
 2.52294E+01 7.88504E-17
 2.66058E+01 8.13528E-17
 2.80573E+01 8.34258E-17
 2.95879E+01 8.51035E-17
 3.00000E+01 8.54787E-17
 3.12021E+01 8.64118E-17
 3.29043E+01 8.73763E-17
 3.46994E+01 8.80222E-17
 3.50000E+01 8.80987E-17
 3.65924E+01 8.83733E-17
 3.85887E+01 8.84532E-17
 4.00000E+01 8.83651E-17
 4.06939E+01 8.82847E-17
 4.29140E+01 8.78890E-17
 4.50000E+01 8.73588E-17
 4.77241E+01 8.64921E-17
 5.00000E+01 8.56545E-17
 5.30733E+01 8.44075E-17
 5.50000E+01 8.35789E-17
 5.59687E+01 8.31526E-17
 5.90220E+01 8.17760E-17
 6.00000E+01 8.13271E-17
 6.22420E+01 8.02905E-17
 6.56376E+01 7.87170E-17
 6.92184E+01 7.70630E-17
 7.00000E+01 7.67036E-17
 7.29946E+01 7.53374E-17
 7.69769E+01 7.35585E-17
 8.00000E+01 7.22428E-17
 8.11763E+01 7.17393E-17
 8.56049E+01 6.98868E-17
 9.00000E+01 6.81176E-17
 9.52000E+01 6.61149E-17
 1.00000E+02 6.43529E-17
 1.10000E+02 6.09386E-17
 1.25000E+02 5.64146E-17
 1.40000E+02 5.25062E-17
 1.50000E+02 5.01862E-17
 1.75000E+02 4.52174E-17
 2.00000E+02 4.11550E-17
 2.20000E+02 3.84291E-17
 2.50000E+02 3.50738E-17
 3.00000E+02 3.06388E-17
 3.50000E+02 2.72262E-17
 4.00000E+02 2.45288E-17
 4.50000E+02 2.23357E-17
 5.00000E+02 2.05169E-17
 5.50000E+02 1.89870E-17
 6.00000E+02 1.76786E-17
 7.00000E+02 1.55585E-17
 8.00000E+02 1.39113E-17
 9.00000E+02 1.25956E-17
 1.00000E+03 1.15184E-17
 1.10000E+03 1.06168E-17
 1.25000E+03 9.51299E-18
 1.40000E+03 8.62911E-18
 1.50000E+03 8.12924E-18
 1.75000E+03 7.10966E-18
 2.00000E+03 6.32749E-18
 2.20000E+03 5.82130E-18
 2.50000E+03 5.20413E-18
 3.00000E+03 4.43338E-18
 3.50000E+03 3.87020E-18
 4.00000E+03 3.43989E-18
 4.50000E+03 3.09991E-18
 5.00000E+03 2.82421E-18
 5.50000E+03 2.59595E-18
 6.00000E+03 2.40370E-18
 7.00000E+03 2.09749E-18
 8.00000E+03 1.86416E-18
 9.00000E+03 1.68019E-18
 1.00000E+04 1.53128E-18
 1.10000E+04 1.40818E-18
 1.25000E+04 1.25879E-18
 1.40000E+04 1.14001E-18
 1.50000E+04 1.07343E-18
 1.75000E+04 9.38872E-19
 2.00000E+04 8.36586E-19
 2.20000E+04 7.70819E-19
 2.50000E+04 6.91124E-19
 3.00000E+04 5.92427E-19
 3.50000E+04 5.20938E-19
 4.00000E+04 4.66704E-19
 4.50000E+04 4.24118E-19
 5.00000E+04 3.89774E-19
 5.50000E+04 3.61475E-19
 6.00000E+04 3.37751E-19
 7.00000E+04 3.00190E-19
 8.00000E+04 2.71783E-19
 9.00000E+04 2.49549E-19
 1.00000E+05 2.31671E-19
 1.10000E+05 2.16988E-19
 1.25000E+05 1.99310E-19
 1.40000E+05 1.85387E-19
 1.50000E+05 1.77642E-19
 1.75000E+05 1.62158E-19
 2.00000E+05 1.50575E-19
 2.20000E+05 1.43237E-19
 2.50000E+05 1.34487E-19
 3.00000E+05 1.23941E-19
 3.50000E+05 1.16576E-19
 4.00000E+05 1.11201E-19
 4.50000E+05 1.07149E-19
 5.00000E+05 1.04019E-19
 5.50000E+05 1.01555E-19
 6.00000E+05 9.95853E-20
 7.00000E+05 9.66928E-20
 8.00000E+05 9.47394E-20
 9.00000E+05 9.33937E-20
 1.00000E+06 9.24584E-20
 1.10000E+06 9.18103E-20
 1.25000E+06 9.12068E-20
 1.40000E+06 9.08999E-20
 1.50000E+06 9.08076E-20
 1.75000E+06 9.08318E-20
 2.00000E+06 9.10800E-20
 2.20000E+06 9.13685E-20
 2.50000E+06 9.18840E-20
 3.00000E+06 9.28356E-20
 3.50000E+06 9.38051E-20
 4.00000E+06 9.47454E-20
 4.50000E+06 9.56399E-20
 5.00000E+06 9.64849E-20
 5.50000E+06 9.72788E-20
 6.00000E+06 9.80276E-20
 7.00000E+06 9.93999E-20
 8.00000E+06 1.00629E-19
 9.00000E+06 1.01739E-19
 1.00000E+07 1.02750E-19
 1.10000E+07 1.03676E-19
 1.25000E+07 1.04932E-19
 1.40000E+07 1.06060E-19
 1.50000E+07 1.06750E-19
 1.75000E+07 1.08309E-19
 2.00000E+07 1.09668E-19
 2.20000E+07 1.10645E-19
 2.50000E+07 1.11961E-19
 3.00000E+07 1.13848E-19
 3.50000E+07 1.15451E-19
 4.00000E+07 1.16843E-19
 4.50000E+07 1.18076E-19
 5.00000E+07 1.19177E-19
 5.50000E+07 1.20178E-19
 6.00000E+07 1.21092E-19
 7.00000E+07 1.22713E-19
 8.00000E+07 1.24118E-19
 9.00000E+07 1.25363E-19
 1.00000E+08 1.26473E-19
 1.10000E+08 1.27479E-19
 1.25000E+08 1.28831E-19
 1.40000E+08 1.30030E-19
 1.50000E+08 1.30756E-19
 1.75000E+08 1.32387E-19
 2.00000E+08 1.33800E-19
 2.20000E+08 1.34813E-19
 2.50000E+08 1.36166E-19
 3.00000E+08 1.38097E-19
 3.50000E+08 1.39732E-19
 4.00000E+08 1.41149E-19
 4.50000E+08 1.42399E-19
 5.00000E+08 1.43517E-19
 5.50000E+08 1.44528E-19
 6.00000E+08 1.45451E-19
 7.00000E+08 1.47087E-19
 8.00000E+08 1.48504E-19
 9.00000E+08 1.49754E-19
 1.00000E+09 1.50873E-19
 *** Electron ionisation cross sections,  IZ =  6,  NSHELL =  1,  NDATA = 201
 4.00000E+01 0.00000E+00
 4.50000E+01 0.00000E+00
 5.00000E+01 0.00000E+00
 5.50000E+01 0.00000E+00
 6.00000E+01 0.00000E+00
 7.00000E+01 0.00000E+00
 8.00000E+01 0.00000E+00
 9.00000E+01 0.00000E+00
 1.00000E+02 0.00000E+00
 1.10000E+02 0.00000E+00
 1.25000E+02 0.00000E+00
 1.40000E+02 0.00000E+00
 1.50000E+02 0.00000E+00
 1.75000E+02 0.00000E+00
 2.00000E+02 0.00000E+00
 2.20000E+02 0.00000E+00
 2.50000E+02 0.00000E+00
 2.88000E+02 0.00000E+00
 2.88000E+02 0.00000E+00
 2.90880E+02 6.47323E-21
 2.94874E+02 1.52506E-20
 2.98924E+02 2.39164E-20
 3.00000E+02 2.61817E-20
 3.03028E+02 3.24693E-20
 3.07189E+02 4.09082E-20
 3.11408E+02 4.92320E-20
 3.15684E+02 5.74399E-20
 3.20019E+02 6.55311E-20
 3.24413E+02 7.35052E-20
 3.28868E+02 8.13616E-20
 3.33384E+02 8.91001E-20
 3.37962E+02 9.67204E-20
 3.42603E+02 1.04222E-19
 3.47307E+02 1.11606E-19
 3.50000E+02 1.15735E-19
 3.52077E+02 1.18872E-19
 3.56911E+02 1.26019E-19
 3.61812E+02 1.33049E-19
 3.66781E+02 1.39961E-19
 3.71817E+02 1.46756E-19
 3.76923E+02 1.53435E-19
 3.82099E+02 1.59997E-19
 3.87346E+02 1.66443E-19
 3.92665E+02 1.72774E-19
 3.98057E+02 1.78991E-19
 4.00000E+02 1.81183E-19
 4.03523E+02 1.85093E-19
 4.09064E+02 1.91083E-19
 4.14681E+02 1.96959E-19
 4.20376E+02 2.02724E-19
 4.26148E+02 2.08377E-19
 4.32000E+02 2.13919E-19
 4.50000E+02 2.29866E-19
 4.55568E+02 2.34498E-19
 4.80421E+02 2.53570E-19
 5.00000E+02 2.66888E-19
 5.06631E+02 2.71086E-19
 5.34270E+02 2.87060E-19
 5.50000E+02 2.95159E-19
 5.63417E+02 3.01560E-19
 5.94154E+02 3.14653E-19
 6.00000E+02 3.16917E-19
 6.26568E+02 3.26382E-19
 6.60750E+02 3.36761E-19
 7.00000E+02 3.46521E-19
 7.34811E+02 3.53527E-19
 7.74899E+02 3.59981E-19
 8.00000E+02 3.63267E-19
 8.17173E+02 3.65218E-19
 8.61754E+02 3.69289E-19
 9.00000E+02 3.71784E-19
 9.08767E+02 3.72242E-19
 9.58345E+02 3.74134E-19
 1.00000E+03 3.74923E-19
 1.01063E+03 3.75023E-19
 1.06576E+03 3.74965E-19
 1.10000E+03 3.74503E-19
 1.12390E+03 3.74013E-19
 1.18522E+03 3.72222E-19
 1.25000E+03 3.69649E-19
 1.31807E+03 3.66381E-19
 1.38997E+03 3.62457E-19
 1.40000E+03 3.61880E-19
 1.46580E+03 3.57943E-19
 1.50000E+03 3.55816E-19
 1.54577E+03 3.52900E-19
 1.63010E+03 3.47385E-19
 1.71903E+03 3.41451E-19
 1.75000E+03 3.39373E-19
 1.81281E+03 3.35154E-19
 1.91171E+03 3.28538E-19
 2.00000E+03 3.22695E-19
 2.01600E+03 3.21645E-19
 2.20000E+03 3.09822E-19
 2.50000E+03 2.91763E-19
 3.00000E+03 2.65389E-19
 3.50000E+03 2.43165E-19
 4.00000E+03 2.24462E-19
 4.50000E+03 2.08493E-19
 5.00000E+03 1.95011E-19
 5.50000E+03 1.83330E-19
 6.00000E+03 1.73024E-19
 7.00000E+03 1.55762E-19
 8.00000E+03 1.41862E-19
 9.00000E+03 1.30440E-19
 1.00000E+04 1.20843E-19
 1.10000E+04 1.12710E-19
 1.25000E+04 1.02561E-19
 1.40000E+04 9.42406E-20
 1.50000E+04 8.94889E-20
 1.75000E+04 7.96769E-20
 2.00000E+04 7.20343E-20
 2.20000E+04 6.70304E-20
 2.50000E+04 6.08415E-20
 3.00000E+04 5.30252E-20
 3.50000E+04 4.72252E-20
 4.00000E+04 4.27537E-20
 4.50000E+04 3.91996E-20
 5.00000E+04 3.63017E-20
 5.50000E+04 3.38867E-20
 6.00000E+04 3.18446E-20
 7.00000E+04 2.85817E-20
 8.00000E+04 2.60884E-20
 9.00000E+04 2.41195E-20
 1.00000E+05 2.25252E-20
 1.10000E+05 2.12082E-20
 1.25000E+05 1.96134E-20
 1.40000E+05 1.83504E-20
 1.50000E+05 1.76455E-20
 1.75000E+05 1.62311E-20
 2.00000E+05 1.51696E-20
 2.20000E+05 1.44963E-20
 2.50000E+05 1.36937E-20
 3.00000E+05 1.27290E-20
 3.50000E+05 1.20602E-20
 4.00000E+05 1.15775E-20
 4.50000E+05 1.12189E-20
 5.00000E+05 1.09469E-20
 5.50000E+05 1.07376E-20
 6.00000E+05 1.05748E-20
 7.00000E+05 1.03472E-20
 8.00000E+05 1.02071E-20
 9.00000E+05 1.01231E-20
 1.00000E+06 1.00765E-20
 1.10000E+06 1.00556E-20
 1.25000E+06 1.00565E-20
 1.40000E+06 1.00824E-20
 1.50000E+06 1.01087E-20
 1.75000E+06 1.01934E-20
 2.00000E+06 1.02926E-20
 2.20000E+06 1.03764E-20
 2.50000E+06 1.05037E-20
 3.00000E+06 1.07110E-20
 3.50000E+06 1.09062E-20
 4.00000E+06 1.10876E-20
 4.50000E+06 1.12557E-20
 5.00000E+06 1.14119E-20
 5.50000E+06 1.15569E-20
 6.00000E+06 1.16924E-20
 7.00000E+06 1.19384E-20
 8.00000E+06 1.21567E-20
 9.00000E+06 1.23527E-20
 1.00000E+07 1.25304E-20
 1.10000E+07 1.26930E-20
 1.25000E+07 1.29129E-20
 1.40000E+07 1.31099E-20
 1.50000E+07 1.32304E-20
 1.75000E+07 1.35014E-20
 2.00000E+07 1.37380E-20
 2.20000E+07 1.39076E-20
 2.50000E+07 1.41360E-20
 3.00000E+07 1.44632E-20
 3.50000E+07 1.47411E-20
 4.00000E+07 1.49825E-20
 4.50000E+07 1.51959E-20
 5.00000E+07 1.53870E-20
 5.50000E+07 1.55603E-20
 6.00000E+07 1.57185E-20
 7.00000E+07 1.59992E-20
 8.00000E+07 1.62428E-20
 9.00000E+07 1.64578E-20
 1.00000E+08 1.66505E-20
 1.10000E+08 1.68244E-20
 1.25000E+08 1.70586E-20
 1.40000E+08 1.72659E-20
 1.50000E+08 1.73920E-20
 1.75000E+08 1.76746E-20
 2.00000E+08 1.79193E-20
 2.20000E+08 1.80941E-20
 2.50000E+08 1.83286E-20
 3.00000E+08 1.86631E-20
 3.50000E+08 1.89452E-20
 4.00000E+08 1.91914E-20
 4.50000E+08 1.94076E-20
 5.00000E+08 1.96010E-20
 5.50000E+08 1.97759E-20
 6.00000E+08 1.99357E-20
 7.00000E+08 2.02187E-20
 8.00000E+08 2.04639E-20
 9.00000E+08 2.06802E-20
 1.00000E+09 2.08737E-20
 *** Electron ionisation cross sections,  IZ =  7,  NSHELL =  1,  NDATA = 199
 4.00000E+01 0.00000E+00
 4.50000E+01 0.00000E+00
 5.00000E+01 0.00000E+00
 5.50000E+01 0.00000E+00
 6.00000E+01 0.00000E+00
 7.00000E+01 0.00000E+00
 8.00000E+01 0.00000E+00
 9.00000E+01 0.00000E+00
 1.00000E+02 0.00000E+00
 1.10000E+02 0.00000E+00
 1.25000E+02 0.00000E+00
 1.40000E+02 0.00000E+00
 1.50000E+02 0.00000E+00
 1.75000E+02 0.00000E+00
 2.00000E+02 0.00000E+00
 2.20000E+02 0.00000E+00
 2.50000E+02 0.00000E+00
 3.00000E+02 0.00000E+00
 3.50000E+02 0.00000E+00
 4.00000E+02 0.00000E+00
 4.03000E+02 0.00000E+00
 4.03000E+02 0.00000E+00
 4.07030E+02 3.41635E-21
 4.12619E+02 8.04622E-21
 4.18285E+02 1.26145E-20
 4.24029E+02 1.71206E-20
 4.29852E+02 2.15642E-20
 4.35755E+02 2.59448E-20
 4.41738E+02 3.02621E-20
 4.47804E+02 3.45159E-20
 4.50000E+02 3.60261E-20
 4.53953E+02 3.87060E-20
 4.60187E+02 4.28324E-20
 4.66506E+02 4.68949E-20
 4.72912E+02 5.08937E-20
 4.79406E+02 5.48286E-20
 4.85989E+02 5.86999E-20
 4.92663E+02 6.25077E-20
 5.00000E+02 6.65635E-20
 5.06286E+02 6.99334E-20
 5.13238E+02 7.35518E-20
 5.20286E+02 7.71075E-20
 5.27431E+02 8.06009E-20
 5.34673E+02 8.40323E-20
 5.42015E+02 8.74020E-20
 5.50000E+02 9.09471E-20
 5.57003E+02 9.39577E-20
 5.64652E+02 9.71445E-20
 5.72406E+02 1.00271E-19
 5.80266E+02 1.03338E-19
 5.88234E+02 1.06345E-19
 5.96312E+02 1.09294E-19
 6.00000E+02 1.10607E-19
 6.04500E+02 1.12183E-19
 6.37478E+02 1.22867E-19
 6.72256E+02 1.32734E-19
 7.00000E+02 1.39707E-19
 7.08931E+02 1.41799E-19
 7.47607E+02 1.50075E-19
 7.88392E+02 1.57579E-19
 8.00000E+02 1.59510E-19
 8.31403E+02 1.64325E-19
 8.76760E+02 1.70332E-19
 9.00000E+02 1.73027E-19
 9.24592E+02 1.75624E-19
 9.75033E+02 1.80222E-19
 1.00000E+03 1.82173E-19
 1.02823E+03 1.84147E-19
 1.08432E+03 1.87416E-19
 1.10000E+03 1.88189E-19
 1.14348E+03 1.90044E-19
 1.20586E+03 1.92056E-19
 1.25000E+03 1.93094E-19
 1.27164E+03 1.93501E-19
 1.34102E+03 1.94406E-19
 1.40000E+03 1.94756E-19
 1.41418E+03 1.94789E-19
 1.50000E+03 1.94636E-19
 1.57269E+03 1.94105E-19
 1.65848E+03 1.93109E-19
 1.75000E+03 1.91695E-19
 1.84438E+03 1.89942E-19
 1.94500E+03 1.87852E-19
 2.00000E+03 1.86636E-19
 2.05110E+03 1.85467E-19
 2.16300E+03 1.82805E-19
 2.20000E+03 1.81902E-19
 2.28101E+03 1.79900E-19
 2.40545E+03 1.76784E-19
 2.50000E+03 1.74404E-19
 2.53667E+03 1.73482E-19
 2.67506E+03 1.70020E-19
 2.82100E+03 1.66419E-19
 3.00000E+03 1.62106E-19
 3.50000E+03 1.50824E-19
 4.00000E+03 1.40820E-19
 4.50000E+03 1.31984E-19
 5.00000E+03 1.24186E-19
 5.50000E+03 1.17290E-19
 6.00000E+03 1.11130E-19
 7.00000E+03 1.00813E-19
 8.00000E+03 9.24323E-20
 9.00000E+03 8.54453E-20
 1.00000E+04 7.94898E-20
 1.10000E+04 7.43912E-20
 1.25000E+04 6.79747E-20
 1.40000E+04 6.26738E-20
 1.50000E+04 5.96256E-20
 1.75000E+04 5.32927E-20
 2.00000E+04 4.83167E-20
 2.20000E+04 4.50378E-20
 2.50000E+04 4.09745E-20
 3.00000E+04 3.58148E-20
 3.50000E+04 3.19672E-20
 4.00000E+04 2.89966E-20
 4.50000E+04 2.66219E-20
 5.00000E+04 2.46768E-20
 5.50000E+04 2.30586E-20
 6.00000E+04 2.16898E-20
 7.00000E+04 1.94971E-20
 8.00000E+04 1.78157E-20
 9.00000E+04 1.64842E-20
 1.00000E+05 1.54062E-20
 1.10000E+05 1.45163E-20
 1.25000E+05 1.34375E-20
 1.40000E+05 1.25798E-20
 1.50000E+05 1.21006E-20
 1.75000E+05 1.11308E-20
 2.00000E+05 1.04106E-20
 2.20000E+05 9.95361E-21
 2.50000E+05 9.40884E-21
 3.00000E+05 8.75422E-21
 3.50000E+05 8.30066E-21
 4.00000E+05 7.97364E-21
 4.50000E+05 7.73115E-21
 5.00000E+05 7.54764E-21
 5.50000E+05 7.40674E-21
 6.00000E+05 7.29751E-21
 7.00000E+05 7.14577E-21
 8.00000E+05 7.05357E-21
 9.00000E+05 6.99948E-21
 1.00000E+06 6.97080E-21
 1.10000E+06 6.95952E-21
 1.25000E+06 6.96436E-21
 1.40000E+06 6.98602E-21
 1.50000E+06 7.00651E-21
 1.75000E+06 7.07019E-21
 2.00000E+06 7.14335E-21
 2.20000E+06 7.20452E-21
 2.50000E+06 7.29693E-21
 3.00000E+06 7.44679E-21
 3.50000E+06 7.58729E-21
 4.00000E+06 7.71762E-21
 4.50000E+06 7.83816E-21
 5.00000E+06 7.95005E-21
 5.50000E+06 8.05400E-21
 6.00000E+06 8.15093E-21
 7.00000E+06 8.32700E-21
 8.00000E+06 8.48318E-21
 9.00000E+06 8.62331E-21
 1.00000E+07 8.75040E-21
 1.10000E+07 8.86650E-21
 1.25000E+07 9.02375E-21
 1.40000E+07 9.16431E-21
 1.50000E+07 9.25050E-21
 1.75000E+07 9.44424E-21
 2.00000E+07 9.61316E-21
 2.20000E+07 9.73427E-21
 2.50000E+07 9.89741E-21
 3.00000E+07 1.01311E-20
 3.50000E+07 1.03295E-20
 4.00000E+07 1.05020E-20
 4.50000E+07 1.06544E-20
 5.00000E+07 1.07910E-20
 5.50000E+07 1.09148E-20
 6.00000E+07 1.10276E-20
 7.00000E+07 1.12282E-20
 8.00000E+07 1.14021E-20
 9.00000E+07 1.15558E-20
 1.00000E+08 1.16933E-20
 1.10000E+08 1.18175E-20
 1.25000E+08 1.19846E-20
 1.40000E+08 1.21328E-20
 1.50000E+08 1.22230E-20
 1.75000E+08 1.24245E-20
 2.00000E+08 1.25993E-20
 2.20000E+08 1.27241E-20
 2.50000E+08 1.28917E-20
 3.00000E+08 1.31307E-20
 3.50000E+08 1.33325E-20
 4.00000E+08 1.35079E-20
 4.50000E+08 1.36623E-20
 5.00000E+08 1.38004E-20
 5.50000E+08 1.39253E-20
 6.00000E+08 1.40394E-20
 7.00000E+08 1.42415E-20
 8.00000E+08 1.44166E-20
 9.00000E+08 1.45711E-20
 1.00000E+09 1.47093E-20
 *** Electron ionisation cross sections,  IZ =  8,  NSHELL =  1,  NDATA = 198
 4.00000E+01 0.00000E+00
 4.50000E+01 0.00000E+00
 5.00000E+01 0.00000E+00
 5.50000E+01 0.00000E+00
 6.00000E+01 0.00000E+00
 7.00000E+01 0.00000E+00
 8.00000E+01 0.00000E+00
 9.00000E+01 0.00000E+00
 1.00000E+02 0.00000E+00
 1.10000E+02 0.00000E+00
 1.25000E+02 0.00000E+00
 1.40000E+02 0.00000E+00
 1.50000E+02 0.00000E+00
 1.75000E+02 0.00000E+00
 2.00000E+02 0.00000E+00
 2.20000E+02 0.00000E+00
 2.50000E+02 0.00000E+00
 3.00000E+02 0.00000E+00
 3.50000E+02 0.00000E+00
 4.00000E+02 0.00000E+00
 4.50000E+02 0.00000E+00
 5.00000E+02 0.00000E+00
 5.38000E+02 0.00000E+00
 5.38000E+02 0.00000E+00
 5.43380E+02 1.97422E-21
 5.50000E+02 4.35048E-21
 5.58406E+02 7.28580E-21
 5.66074E+02 9.88597E-21
 5.73847E+02 1.24488E-20
 5.81727E+02 1.49742E-20
 5.89715E+02 1.74619E-20
 5.97813E+02 1.99120E-20
 6.00000E+02 2.05617E-20
 6.06022E+02 2.23245E-20
 6.14344E+02 2.46993E-20
 6.22780E+02 2.70364E-20
 6.31332E+02 2.93359E-20
 6.40001E+02 3.15980E-20
 6.48790E+02 3.38226E-20
 6.57699E+02 3.60100E-20
 6.66730E+02 3.81603E-20
 6.75886E+02 4.02736E-20
 6.85167E+02 4.23502E-20
 6.94575E+02 4.43902E-20
 7.00000E+02 4.55375E-20
 7.04113E+02 4.63938E-20
 7.13782E+02 4.83613E-20
 7.23584E+02 5.02928E-20
 7.33520E+02 5.21887E-20
 7.43592E+02 5.40491E-20
 7.53803E+02 5.58743E-20
 7.64154E+02 5.76646E-20
 7.74648E+02 5.94202E-20
 7.85285E+02 6.11413E-20
 7.96068E+02 6.28283E-20
 8.00000E+02 6.34293E-20
 8.07000E+02 6.44814E-20
 8.51026E+02 7.05767E-20
 9.00000E+02 7.64739E-20
 9.46414E+02 8.13315E-20
 1.00000E+03 8.61847E-20
 1.05249E+03 9.02660E-20
 1.10000E+03 9.34647E-20
 1.10991E+03 9.40787E-20
 1.17046E+03 9.74700E-20
 1.23432E+03 1.00452E-19
 1.25000E+03 1.01101E-19
 1.30166E+03 1.03035E-19
 1.37267E+03 1.05233E-19
 1.40000E+03 1.05953E-19
 1.44755E+03 1.07056E-19
 1.50000E+03 1.08073E-19
 1.52653E+03 1.08516E-19
 1.60980E+03 1.09629E-19
 1.69763E+03 1.10415E-19
 1.75000E+03 1.10724E-19
