 PENELOPE (v. 2018)  Material data file ...............
 Material: IRIDIUM  (77)                                                 
 Mass density = 2.24200000E+01 g/cm**3
 Number of elements in the molecule =  1
   atomic number = 77,  atoms/molecule = 1.00000000E+00
 Mean excitation energy = 7.57000000E+02 eV
 Number of oscillators = 22 (E/P inelastic model)
   1  3.00000000E+00  0.00000000E+00  1.70455844E+01   0  30
   2  2.00000000E+00  9.60000000E+00  2.18914074E+01  77  30
   3  4.00000000E+00  9.60000000E+00  2.46651154E+01  77  30
   4  4.00000000E+00  5.30000000E+01  1.04542632E+02  77  30
   5  8.00000000E+00  6.40000000E+01  1.26793199E+02  77  16
   6  2.00000000E+00  6.60000000E+01  1.29138711E+02  77  30
   7  6.00000000E+00  6.70000000E+01  1.32061798E+02  77  15
   8  2.00000000E+00  9.90000000E+01  1.93290966E+02  77  30
   9  6.00000000E+00  2.98000000E+02  5.81152366E+02  77  14
  10  4.00000000E+00  3.14000000E+02  6.12214841E+02  77  13
  11  4.00000000E+00  4.97000000E+02  9.68814593E+02  77  12
  12  2.00000000E+00  5.81000000E+02  1.13245909E+03  77  11
  13  2.00000000E+00  6.93000000E+02  1.35074425E+03  77  10
  14  6.00000000E+00  2.04400000E+03  3.98392098E+03  77   9
  15  4.00000000E+00  2.11900000E+03  4.13008290E+03  77   8
  16  4.00000000E+00  2.55400000E+03  4.97791733E+03  77   7
  17  2.00000000E+00  2.91200000E+03  5.67566515E+03  77   6
  18  2.00000000E+00  3.17500000E+03  6.18826618E+03  77   5
  19  4.00000000E+00  1.12190000E+04  2.18664756E+04  77   4
  20  2.00000000E+00  1.28280000E+04  2.50025048E+04  77   3
  21  2.00000000E+00  1.34220000E+04  2.61602445E+04  77   2
  22  2.00000000E+00  7.61150000E+04  1.48352468E+05  77   1
 Number of shells = 21 (Compton IA model)
   1  3.00000000E+00  0.00000000E+00  7.79999723E-01   0  30
   2  6.00000000E+00  9.60000000E+00  2.94913333E-01  77  30
   3  4.00000000E+00  5.30000000E+01  2.80944000E-01  77  30
   4  8.00000000E+00  6.40000000E+01  7.23939000E-02  77  16
   5  2.00000000E+00  6.60000000E+01  2.56855000E-01  77  30
   6  6.00000000E+00  6.70000000E+01  7.14268000E-02  77  15
   7  2.00000000E+00  9.90000000E+01  3.83879000E-01  77  30
   8  6.00000000E+00  2.98000000E+02  8.22216000E-02  77  14
   9  4.00000000E+00  3.14000000E+02  8.03791000E-02  77  13
  10  4.00000000E+00  4.97000000E+02  1.05743000E-01  77  12
  11  2.00000000E+00  5.81000000E+02  9.85909000E-02  77  11
  12  2.00000000E+00  6.93000000E+02  1.56346000E-01  77  10
  13  6.00000000E+00  2.04400000E+03  3.14501000E-02  77   9
  14  4.00000000E+00  2.11900000E+03  3.07203000E-02  77   8
  15  4.00000000E+00  2.55400000E+03  4.74582000E-02  77   7
  16  2.00000000E+00  2.91200000E+03  4.41698000E-02  77   6
  17  2.00000000E+00  3.17500000E+03  7.52972000E-02  77   5
  18  4.00000000E+00  1.12190000E+04  1.86675000E-02  77   4
  19  2.00000000E+00  1.28280000E+04  1.67072000E-02  77   3
  20  2.00000000E+00  1.34220000E+04  3.42196000E-02  77   2
  21  2.00000000E+00  7.61150000E+04  9.62450000E-03  77   1
 *** RELAX:  Z = 77,  no. of shells = 22,  no. of transitions = 1442
   1 1s1/2 2  7.61150E+04  4.70000E+01  9.62450E-03
   2 2s1/2 2  1.34220E+04  7.90000E+00  3.42196E-02
   3 2p1/2 2  1.28280E+04  5.23000E+00  1.67072E-02
   4 2p3/2 4  1.12190E+04  5.24000E+00  1.86675E-02
   5 3s1/2 2  3.17500E+03  1.48000E+01  7.52972E-02
   6 3p1/2 2  2.91200E+03  8.90000E+00  4.41698E-02
   7 3p3/2 4  2.55400E+03  8.00000E+00  4.74582E-02
   8 3d3/2 4  2.11900E+03  1.99000E+00  3.07203E-02
   9 3d5/2 6  2.04400E+03  1.99000E+00  3.14501E-02
  10 4s1/2 2  6.93000E+02  8.00000E+00  1.56346E-01
  11 4p1/2 2  5.81000E+02  6.10000E+00  9.85909E-02
  12 4p3/2 4  4.97000E+02  4.75000E+00  1.05743E-01
  13 4d3/2 4  3.14000E+02  4.10000E+00  8.03791E-02
  14 4d5/2 6  2.98000E+02  4.00000E+00  8.22216E-02
  17 5s1/2 2  9.90000E+01  1.32791E+01  3.83879E-01
  15 4f5/2 6  6.70000E+01  3.10000E-01  7.14268E-02
  18 5p1/2 2  6.60000E+01  6.14189E+00  2.56855E-01
  16 4f7/2 8  6.40000E+01  2.70000E-01  7.23939E-02
  19 5p3/2 4  5.30000E+01  4.80135E+00  2.80944E-01
  20 5d3/2 4  9.60000E+00  0.00000E+00  2.90457E-01
  21 5d5/2 3  9.60000E+00  0.00000E+00  3.03826E-01
  24 6s1/2 2  9.26700E+00  0.00000E+00  1.39366E+00
   1  3  0  2.78730E-01  6.32873E+04
   1  4  0  4.78070E-01  6.48962E+04
   1  6  0  5.21380E-02  7.32034E+04
   1  7  0  1.00820E-01  7.35617E+04
   1  8  0  1.23440E-03  7.39800E+04
   1  9  0  1.53320E-03  7.40755E+04
   1 11  0  1.20800E-02  7.57436E+04
   1 12  0  2.35250E-02  7.58294E+04
   1 13  0  3.09490E-04  7.60035E+04
   1 14  0  3.83160E-04  7.60194E+04
   1 18  0  2.76620E-03  7.62483E+04
   1 19  0  5.54620E-03  7.62623E+04
   1 20  0  2.05020E-05  7.63060E+04
   1 21  0  2.44360E-05  7.63072E+04
   1  2  2  4.40800E-03  4.95220E+04
   1  2  3  6.61414E-03  5.00590E+04
   1  2  4  4.21206E-03  5.17040E+04
   1  2  5  1.75589E-03  5.97723E+04
   1  2  6  1.41635E-03  6.00178E+04
   1  2  7  9.64465E-04  6.03790E+04
   1  2  8  7.92971E-05  6.07948E+04
   1  2  9  6.32902E-05  6.08732E+04
   1  2 10  4.30868E-04  6.22427E+04
   1  2 11  3.38070E-04  6.23477E+04
   1  2 12  2.28615E-04  6.24334E+04
   1  2 13  1.97157E-05  6.26075E+04
   1  2 14  1.54512E-05  6.26234E+04
   1  2 15  6.18040E-08  6.28467E+04
   1  2 16  6.18040E-08  6.28499E+04
   1  2 17  8.20157E-05  6.28189E+04
   1  2 18  5.55603E-05  6.28523E+04
   1  2 19  3.57851E-05  6.28663E+04
   1  2 20  1.42157E-06  6.29100E+04
   1  2 21  8.65297E-07  6.29112E+04
   1  3  3  4.17156E-04  5.05960E+04
   1  3  4  7.69614E-03  5.22410E+04
   1  3  5  1.13375E-03  6.03093E+04
   1  3  6  1.56851E-04  6.05548E+04
   1  3  7  1.46930E-03  6.09160E+04
   1  3  8  8.29989E-05  6.13318E+04
   1  3  9  2.28985E-04  6.14102E+04
   1  3 10  2.68889E-04  6.27797E+04
   1  3 11  3.64008E-05  6.28847E+04
   1  3 12  3.34412E-04  6.29704E+04
   1  3 13  1.99002E-05  6.31445E+04
   1  3 14  5.48807E-05  6.31604E+04
   1  3 15  4.94428E-07  6.33837E+04
   1  3 16  7.41615E-07  6.33869E+04
   1  3 17  5.07993E-05  6.33559E+04
   1  3 18  5.93287E-06  6.33893E+04
   1  3 19  5.19126E-05  6.34033E+04
   1  3 20  1.42147E-06  6.34470E+04
   1  3 21  3.02820E-06  6.34482E+04
   1  4  4  3.39749E-03  5.38860E+04
   1  4  5  6.62831E-04  6.19543E+04
   1  4  6  1.35702E-03  6.21998E+04
   1  4  7  1.34020E-03  6.25610E+04
   1  4  8  2.57658E-04  6.29768E+04
   1  4  9  2.18545E-04  6.30552E+04
   1  4 10  1.54083E-04  6.44247E+04
   1  4 11  3.10767E-04  6.45297E+04
   1  4 12  3.07654E-04  6.46154E+04
   1  4 13  6.23007E-05  6.47895E+04
   1  4 14  5.25969E-05  6.48054E+04
   1  4 15  8.65292E-07  6.50287E+04
   1  4 16  9.27079E-07  6.50319E+04
   1  4 17  2.89868E-05  6.50009E+04
   1  4 18  5.06188E-05  6.50343E+04
   1  4 19  4.78354E-05  6.50483E+04
   1  4 20  4.51168E-06  6.50920E+04
   1  4 21  2.90484E-06  6.50932E+04
   1  5  5  1.72066E-04  7.00226E+04
   1  5  6  2.43693E-04  7.02681E+04
   1  5  7  1.53278E-04  7.06293E+04
   1  5  8  1.22373E-05  7.10451E+04
   1  5  9  9.20899E-06  7.11235E+04
   1  5 10  8.41169E-05  7.24930E+04
   1  5 11  5.82185E-05  7.25979E+04
   1  5 12  3.64029E-05  7.26838E+04
   1  5 13  3.02837E-06  7.28578E+04
   1  5 14  2.22501E-06  7.28737E+04
   1  5 17  1.60077E-05  7.30692E+04
   1  5 18  9.57986E-06  7.31026E+04
   1  5 19  5.68619E-06  7.31166E+04
   1  5 20  2.47212E-07  7.31603E+04
   1  5 21  1.23606E-07  7.31615E+04
   1  6  6  1.43388E-05  7.05136E+04
   1  6  7  2.65992E-04  7.08748E+04
   1  6  8  1.24223E-05  7.12906E+04
   1  6  9  3.05931E-05  7.13690E+04
   1  6 10  5.78471E-05  7.27385E+04
   1  6 11  6.61284E-06  7.28434E+04
   1  6 12  6.08792E-05  7.29293E+04
   1  6 13  3.02839E-06  7.31033E+04
   1  6 14  7.41662E-06  7.31192E+04
   1  6 15  6.18035E-08  7.33425E+04
   1  6 16  6.18035E-08  7.33457E+04
   1  6 17  1.09392E-05  7.33147E+04
   1  6 18  1.05069E-06  7.33481E+04
   1  6 19  9.45616E-06  7.33621E+04
   1  6 20  2.47213E-07  7.34058E+04
   1  6 21  4.32618E-07  7.34070E+04
   1  7  7  1.33371E-04  7.12360E+04
   1  7  8  4.05428E-05  7.16518E+04
   1  7  9  3.33134E-05  7.17302E+04
   1  7 10  3.57239E-05  7.30997E+04
   1  7 11  6.11865E-05  7.32046E+04
   1  7 12  6.13108E-05  7.32904E+04
   1  7 13  9.88854E-06  7.34645E+04
   1  7 14  8.09655E-06  7.34804E+04
   1  7 15  1.23606E-07  7.37037E+04
   1  7 16  1.23606E-07  7.37069E+04
   1  7 17  6.73652E-06  7.36759E+04
   1  7 18  9.95068E-06  7.37093E+04
   1  7 19  9.51767E-06  7.37233E+04
   1  7 20  7.41653E-07  7.37670E+04
   1  7 21  4.32613E-07  7.37682E+04
   1  8  8  6.18048E-08  7.20676E+04
   1  8  9  4.82093E-06  7.21460E+04
   1  8 10  2.84306E-06  7.35155E+04
   1  8 11  2.78134E-06  7.36204E+04
   1  8 12  8.83806E-06  7.37063E+04
   1  8 13  6.18048E-08  7.38803E+04
   1  8 14  1.11253E-06  7.38962E+04
   1  8 17  5.56258E-07  7.40917E+04
   1  8 18  4.32628E-07  7.41251E+04
   1  8 19  1.35975E-06  7.41391E+04
   1  8 21  6.18048E-08  7.41840E+04
   1  9  9  1.11251E-06  7.22244E+04
   1  9 10  2.10137E-06  7.35939E+04
   1  9 11  6.55124E-06  7.36988E+04
   1  9 12  7.23126E-06  7.37846E+04
   1  9 13  1.11251E-06  7.39587E+04
   1  9 14  5.56248E-07  7.39746E+04
   1  9 17  3.70822E-07  7.41701E+04
   1  9 18  1.05069E-06  7.42035E+04
   1  9 19  1.11251E-06  7.42175E+04
   1  9 20  6.18037E-08  7.42612E+04
   1 10 10  1.02588E-05  7.49634E+04
   1 10 11  1.38437E-05  7.50683E+04
   1 10 12  8.46676E-06  7.51541E+04
   1 10 13  6.79822E-07  7.53282E+04
   1 10 14  4.94421E-07  7.53441E+04
   1 10 17  3.89350E-06  7.55395E+04
   1 10 18  2.28657E-06  7.55730E+04
   1 10 19  1.35962E-06  7.55870E+04
   1 10 20  6.17988E-08  7.56307E+04
   1 11 11  7.41667E-07  7.51733E+04
   1 11 12  1.40298E-05  7.52591E+04
   1 11 13  6.79879E-07  7.54331E+04
   1 11 14  1.60695E-06  7.54491E+04
   1 11 17  2.59570E-06  7.56445E+04
   1 11 18  2.47215E-07  7.56780E+04
   1 11 19  2.16321E-06  7.56920E+04
   1 11 20  6.18039E-08  7.57357E+04
   1 11 21  6.18039E-08  7.57369E+04
   1 12 12  6.84810E-06  7.53449E+04
   1 12 13  2.10251E-06  7.55189E+04
   1 12 14  1.68195E-06  7.55349E+04
   1 12 17  1.56186E-06  7.57303E+04
   1 12 18  2.22260E-06  7.57638E+04
   1 12 19  2.16261E-06  7.57778E+04
   1 12 20  1.80214E-07  7.58215E+04
   1 12 21  1.20140E-07  7.58227E+04
   1 13 14  2.78948E-07  7.57089E+04
   1 13 17  1.39475E-07  7.59043E+04
   1 13 18  1.39475E-07  7.59378E+04
   1 13 19  3.48691E-07  7.59518E+04
   1 14 14  6.38737E-08  7.57248E+04
   1 14 17  1.27748E-07  7.59203E+04
   1 14 18  2.55494E-07  7.59537E+04
   1 14 19  2.55494E-07  7.59678E+04
   1 17 17  3.81249E-07  7.61157E+04
   1 17 18  4.44785E-07  7.61492E+04
   1 17 19  2.54166E-07  7.61632E+04
   1 18 19  3.50930E-07  7.61967E+04
   1 19 19  1.79680E-07  7.62107E+04
   2  3  0  1.09590E-05  5.37000E+02
   2  4  0  1.75530E-03  2.18200E+03
   2  6  0  2.51260E-02  1.05107E+04
   2  7  0  2.99970E-02  1.08675E+04
   2  8  0  7.93300E-04  1.13017E+04
   2  9  0  1.18740E-03  1.13771E+04
   2 11  0  6.28030E-03  1.28256E+04
   2 12  0  8.02480E-03  1.29115E+04
   2 13  0  1.15680E-04  1.30855E+04
   2 14  0  1.81540E-04  1.31014E+04
   2 18  0  1.05870E-03  1.33303E+04
   2 19  0  1.30580E-03  1.33443E+04
   2 20  0  6.98380E-06  1.33880E+04
   2 21  0  1.06720E-05  1.33892E+04
   2  3 12  1.67143E-02  5.24500E+01
   2  3 13  4.63490E-03  2.26480E+02
   2  3 14  6.37684E-03  2.42420E+02
   2  3 15  1.38592E-02  4.65670E+02
   2  3 16  1.82183E-02  4.68940E+02
   2  3 17  3.82091E-03  4.37860E+02
   2  3 18  2.59647E-03  4.71320E+02
   2  3 19  2.48811E-03  4.85340E+02
   2  3 20  3.38051E-04  5.29010E+02
   2  3 21  3.63896E-04  5.30210E+02
   2  4  8  2.31106E-01  5.88000E+01
   2  4  9  3.14483E-01  1.37200E+02
   2  4 10  1.95544E-02  1.50668E+03
   2  4 11  7.89099E-03  1.61165E+03
   2  4 12  1.23593E-02  1.69745E+03
   2  4 13  2.91684E-02  1.87148E+03
   2  4 14  3.51313E-02  1.88742E+03
   2  4 15  2.06520E-02  2.11067E+03
   2  4 16  2.58789E-02  2.11394E+03
   2  4 17  3.55608E-03  2.08286E+03
   2  4 18  1.26559E-03  2.11632E+03
   2  4 19  1.91480E-03  2.13034E+03
   2  4 20  1.95634E-03  2.17401E+03
   2  4 21  1.79277E-03  2.17521E+03
   2  5  5  5.00787E-03  7.10460E+03
   2  5  6  1.02300E-02  7.35010E+03
   2  5  7  1.67482E-02  7.71130E+03
   2  5  8  1.26328E-02  8.12710E+03
   2  5  9  1.65585E-02  8.20550E+03
   2  5 10  2.08665E-03  9.57498E+03
   2  5 11  2.40372E-03  9.67995E+03
   2  5 12  3.86813E-03  9.76575E+03
   2  5 13  2.60705E-03  9.93978E+03
   2  5 14  3.38359E-03  9.95572E+03
   2  5 15  1.92497E-04  1.01790E+04
   2  5 16  2.15855E-04  1.01822E+04
   2  5 17  3.87053E-04  1.01512E+04
   2  5 18  3.93254E-04  1.01846E+04
   2  5 19  6.01879E-04  1.01986E+04
   2  5 20  1.83810E-04  1.02423E+04
   2  5 21  1.83191E-04  1.02435E+04
   2  6  6  2.41909E-05  7.59560E+03
   2  6  7  2.21647E-04  7.95680E+03
   2  6  8  6.07658E-04  8.37260E+03
   2  6  9  5.31244E-03  8.45100E+03
   2  6 10  1.68051E-03  9.82048E+03
   2  6 11  3.72161E-06  9.92545E+03
   2  6 12  4.48657E-05  1.00113E+04
   2  6 13  1.13305E-04  1.01853E+04
   2  6 14  6.95119E-04  1.02012E+04
   2  6 15  6.90564E-05  1.04245E+04
   2  6 16  2.42109E-04  1.04277E+04
   2  6 17  2.94627E-04  1.03967E+04
   2  6 18  4.13514E-07  1.04301E+04
   2  6 19  6.82297E-06  1.04441E+04
   2  6 20  8.06337E-06  1.04878E+04
   2  6 21  3.53546E-05  1.04890E+04
   2  7  7  4.93739E-04  8.31800E+03
   2  7  8  2.03434E-03  8.73380E+03
   2  7  9  1.25969E-03  8.81220E+03
   2  7 10  2.72120E-03  1.01817E+04
   2  7 11  5.04494E-05  1.02866E+04
   2  7 12  1.70369E-04  1.03725E+04
   2  7 13  1.79886E-04  1.05465E+04
   2  7 14  9.98738E-05  1.05624E+04
   2  7 15  1.35226E-04  1.07857E+04
   2  7 16  1.12058E-04  1.07889E+04
   2  7 17  4.75963E-04  1.07579E+04
   2  7 18  8.27016E-06  1.07913E+04
   2  7 19  2.50180E-05  1.08053E+04
   2  7 20  1.09582E-05  1.08490E+04
   2  7 21  4.75553E-06  1.08502E+04
   2  8  8  7.48680E-04  9.14960E+03
   2  8  9  2.28678E-02  9.22800E+03
   2  8 10  1.88903E-03  1.05975E+04
   2  8 11  1.74503E-04  1.07024E+04
   2  8 12  5.20201E-04  1.07883E+04
   2  8 13  3.01659E-04  1.09623E+04
   2  8 14  3.27214E-03  1.09782E+04
   2  8 15  2.11721E-04  1.12015E+04
   2  8 16  5.87190E-04  1.12047E+04
   2  8 17  3.25228E-04  1.11737E+04
   2  8 18  2.95656E-05  1.12071E+04
   2  8 19  8.22909E-05  1.12211E+04
   2  8 20  2.12960E-05  1.12648E+04
   2  8 21  1.67682E-04  1.12660E+04
   2  9  9  6.35757E-03  9.30640E+03
   2  9 10  2.50916E-03  1.06759E+04
   2  9 11  1.11148E-03  1.07809E+04
   2  9 12  3.34123E-04  1.08667E+04
   2  9 13  3.18863E-03  1.10407E+04
   2  9 14  1.92017E-03  1.10566E+04
   2  9 15  6.49629E-04  1.12799E+04
   2  9 16  4.93932E-04  1.12831E+04
   2  9 17  4.34184E-04  1.12521E+04
   2  9 18  1.78016E-04  1.12855E+04
   2  9 19  5.33438E-05  1.12995E+04
   2  9 20  2.11520E-04  1.13432E+04
   2  9 21  9.92399E-05  1.13444E+04
   2 10 10  2.05108E-04  1.20454E+04
   2 10 11  3.95935E-04  1.21503E+04
   2 10 12  6.30602E-04  1.22361E+04
   2 10 13  3.90563E-04  1.24102E+04
   2 10 14  5.10687E-04  1.24261E+04
   2 10 15  2.37772E-05  1.26494E+04
   2 10 16  2.58434E-05  1.26526E+04
   2 10 17  7.52595E-05  1.26215E+04
   2 10 18  6.47149E-05  1.26550E+04
   2 10 19  9.82049E-05  1.26690E+04
   2 10 20  2.74991E-05  1.27127E+04
   2 10 21  2.77048E-05  1.27139E+04
   2 11 12  1.03379E-05  1.23411E+04
   2 11 13  2.83264E-05  1.25151E+04
   2 11 14  1.50935E-04  1.25311E+04
   2 11 15  9.51105E-06  1.27543E+04
   2 11 16  3.74231E-05  1.27576E+04
   2 11 17  6.94713E-05  1.27265E+04
   2 11 19  1.65415E-06  1.27740E+04
   2 11 20  1.86077E-06  1.28177E+04
   2 11 21  7.65019E-06  1.28189E+04
   2 12 12  1.42670E-05  1.24269E+04
   2 12 13  5.21044E-05  1.26009E+04
   2 12 14  3.18415E-05  1.26169E+04
   2 12 15  2.60522E-05  1.28401E+04
   2 12 16  2.10898E-05  1.28434E+04
   2 12 17  1.10413E-04  1.28123E+04
   2 12 18  1.65420E-06  1.28458E+04
   2 12 19  4.13528E-06  1.28598E+04
   2 12 20  3.30819E-06  1.29035E+04
   2 12 21  1.65420E-06  1.29047E+04
   2 13 13  2.81187E-05  1.27750E+04
   2 13 14  4.98493E-04  1.27909E+04
   2 13 15  2.95658E-05  1.30141E+04
   2 13 16  6.24412E-05  1.30174E+04
   2 13 17  6.71967E-05  1.29863E+04
   2 13 18  4.75553E-06  1.30198E+04
   2 13 19  8.47679E-06  1.30338E+04
   2 13 20  3.92847E-06  1.30775E+04
   2 13 21  2.58438E-05  1.30787E+04
   2 14 14  1.55276E-04  1.28068E+04
   2 14 15  7.23644E-05  1.30301E+04
   2 14 16  6.14065E-05  1.30334E+04
   2 14 17  8.82855E-05  1.30023E+04
   2 14 18  2.43974E-05  1.30357E+04
   2 14 19  5.16899E-06  1.30498E+04
   2 14 20  3.34940E-05  1.30934E+04
   2 14 21  1.61268E-05  1.30946E+04
   2 15 15  9.26496E-07  1.32533E+04
   2 15 16  1.91484E-05  1.32566E+04
   2 15 17  5.86787E-06  1.32255E+04
   2 15 18  2.16185E-06  1.32590E+04
   2 15 19  5.86787E-06  1.32730E+04
   2 15 20  3.08832E-06  1.33167E+04
   2 15 21  5.25017E-06  1.33179E+04
   2 16 16  4.34471E-06  1.32599E+04
   2 16 17  7.01810E-06  1.32288E+04
   2 16 18  9.02340E-06  1.32623E+04
   2 16 19  5.01296E-06  1.32763E+04
   2 16 20  6.34984E-06  1.33200E+04
   2 16 21  5.01296E-06  1.33211E+04
   2 17 17  1.82774E-05  1.31977E+04
   2 17 18  3.04647E-05  1.32312E+04
   2 17 19  4.59697E-05  1.32452E+04
   2 17 20  1.27390E-05  1.32889E+04
   2 17 21  1.27390E-05  1.32901E+04
   2 18 19  9.66332E-07  1.32787E+04
   2 18 20  1.93266E-06  1.33223E+04
   2 18 21  5.79781E-06  1.33235E+04
   2 19 19  8.46040E-07  1.32927E+04
   2 19 20  2.53812E-06  1.33364E+04
   2 19 21  8.46040E-07  1.33375E+04
   2 20 20  1.87959E-07  1.33800E+04
   2 20 21  1.50374E-06  1.33812E+04
   2 21 21  4.46430E-07  1.33824E+04
   3  4  0  5.14475E-06  1.64500E+03
   3  5  0  7.36658E-03  9.65234E+03
   3  7  0  2.61433E-04  1.02728E+04
   3  8  0  2.69903E-01  1.07084E+04
   3 10  0  1.83212E-03  1.21837E+04
   3 12  0  6.94897E-05  1.23745E+04
   3 13  0  5.20525E-02  1.25485E+04
   3 15  0  1.67682E-04  1.27877E+04
   3 17  0  3.61874E-04  1.27599E+04
   3 19  0  1.40081E-05  1.28073E+04
   3 20  0  3.36594E-03  1.28510E+04
   3  4 10  6.06754E-03  9.69680E+02
   3  4 11  4.01917E-02  1.07465E+03
   3  4 12  1.17396E-02  1.16045E+03
   3  4 13  4.33456E-02  1.33448E+03
   3  4 14  1.50519E-02  1.35042E+03
   3  4 15  1.54558E-03  1.57367E+03
   3  4 16  2.33481E-03  1.57694E+03
   3  4 17  1.05981E-03  1.54586E+03
   3  4 18  6.10603E-03  1.57932E+03
   3  4 19  1.79282E-03  1.59334E+03
   3  4 20  2.95314E-03  1.63701E+03
   3  4 21  7.92871E-04  1.63821E+03
   3  5  5  6.45752E-04  6.56760E+03
   3  5  6  2.10778E-02  6.81310E+03
   3  5  7  2.00415E-03  7.17430E+03
   3  5  8  2.94042E-03  7.59010E+03
   3  5  9  2.10327E-03  7.66850E+03
   3  5 10  2.44492E-04  9.03798E+03
   3  5 11  3.27807E-03  9.14295E+03
   3  5 12  4.13577E-04  9.22875E+03
   3  5 13  4.29612E-04  9.40278E+03
   3  5 14  2.61619E-04  9.41872E+03
   3  5 15  8.93503E-05  9.64197E+03
   3  5 16  6.04570E-05  9.64524E+03
   3  5 17  4.44064E-05  9.61416E+03
   3  5 18  4.95950E-04  9.64762E+03
   3  5 19  6.31320E-05  9.66164E+03
   3  5 20  2.88910E-05  9.70531E+03
   3  5 21  1.33757E-05  9.70651E+03
   3  6  6  2.17961E-02  7.05860E+03
   3  6  7  5.80597E-02  7.41980E+03
   3  6  8  3.04264E-02  7.83560E+03
   3  6  9  4.51335E-02  7.91400E+03
   3  6 10  5.28610E-03  9.28348E+03
   3  6 11  8.64167E-03  9.38845E+03
   3  6 12  1.31667E-02  9.47425E+03
   3  6 13  6.28455E-03  9.64828E+03
   3  6 14  9.27689E-03  9.66422E+03
   3  6 15  4.34979E-04  9.88747E+03
   3  6 16  3.89497E-04  9.89074E+03
   3  6 17  1.01017E-03  9.85966E+03
   3  6 18  1.37660E-03  9.89312E+03
   3  6 19  2.04281E-03  9.90714E+03
   3  6 20  4.43548E-04  9.95081E+03
   3  6 21  5.02932E-04  9.95201E+03
   3  7  7  1.37765E-03  7.78100E+03
   3  7  8  2.94853E-02  8.19680E+03
   3  7  9  4.19509E-03  8.27520E+03
   3  7 10  4.23728E-04  9.64468E+03
   3  7 11  9.25533E-03  9.74965E+03
   3  7 12  5.34475E-04  9.83545E+03
   3  7 13  5.12646E-03  1.00095E+04
   3  7 14  6.97687E-04  1.00254E+04
   3  7 15  1.97959E-04  1.02487E+04
   3  7 16  1.06465E-04  1.02519E+04
   3  7 17  7.81142E-05  1.02209E+04
   3  7 18  1.40652E-03  1.02543E+04
   3  7 19  8.07851E-05  1.02683E+04
   3  7 20  3.52050E-04  1.03120E+04
   3  7 21  3.69158E-05  1.03132E+04
   3  8  8  2.78611E-02  8.61260E+03
   3  8  9  1.12411E-01  8.69100E+03
   3  8 10  7.37828E-04  1.00605E+04
   3  8 11  4.73878E-03  1.01654E+04
   3  8 12  6.22922E-03  1.02513E+04
   3  8 13  9.56178E-03  1.04253E+04
   3  8 14  2.07555E-02  1.04412E+04
   3  8 15  1.59165E-03  1.06645E+04
   3  8 16  3.23302E-03  1.06677E+04
   3  8 17  1.41246E-04  1.06367E+04
   3  8 18  7.22284E-04  1.06701E+04
   3  8 19  9.53392E-04  1.06841E+04
   3  8 20  6.58080E-04  1.07278E+04
   3  8 21  1.10697E-03  1.07290E+04
   3  9  9  5.43571E-03  8.76940E+03
   3  9 10  4.27473E-04  1.01389E+04
   3  9 11  6.21532E-03  1.02439E+04
   3  9 12  8.14290E-04  1.03297E+04
   3  9 13  1.58892E-02  1.05037E+04
   3  9 14  1.82384E-03  1.05196E+04
   3  9 15  6.38811E-04  1.07429E+04
   3  9 16  2.45572E-04  1.07461E+04
   3  9 17  7.81136E-05  1.07151E+04
   3  9 18  9.17016E-04  1.07485E+04
   3  9 19  1.22520E-04  1.07625E+04
   3  9 20  1.05824E-03  1.08062E+04
   3  9 21  9.62999E-05  1.08074E+04
   3 10 10  2.24691E-05  1.15084E+04
   3 10 11  8.27629E-04  1.16133E+04
   3 10 12  8.82779E-05  1.16991E+04
   3 10 13  1.04327E-04  1.18732E+04
   3 10 14  5.35008E-05  1.18891E+04
   3 10 15  1.97952E-05  1.21124E+04
   3 10 16  1.07004E-05  1.21156E+04
   3 10 17  8.02513E-06  1.20845E+04
   3 10 18  1.25184E-04  1.21180E+04
   3 10 19  1.33752E-05  1.21320E+04
   3 10 20  6.95469E-06  1.21757E+04
   3 10 21  2.67493E-06  1.21769E+04
   3 11 11  8.15379E-04  1.17183E+04
   3 11 12  2.10523E-03  1.18041E+04
   3 11 13  9.63562E-04  1.19781E+04
   3 11 14  1.28939E-03  1.19941E+04
   3 11 15  5.51075E-05  1.22173E+04
   3 11 16  4.01270E-05  1.22206E+04
   3 11 17  1.58375E-04  1.21895E+04
   3 11 18  2.57346E-04  1.22230E+04
   3 11 19  3.26912E-04  1.22370E+04
   3 11 20  6.79493E-05  1.22807E+04
   3 11 21  7.00892E-05  1.22819E+04
   3 12 12  5.18971E-05  1.18899E+04
   3 12 13  1.09144E-03  1.20639E+04
   3 12 14  1.38039E-04  1.20799E+04
   3 12 15  3.47768E-05  1.23031E+04
   3 12 16  1.76555E-05  1.23064E+04
   3 12 17  1.60510E-05  1.22753E+04
   3 12 18  3.19945E-04  1.23088E+04
   3 12 19  1.55158E-05  1.23228E+04
   3 12 20  7.49066E-05  1.23665E+04
   3 12 21  7.49066E-06  1.23677E+04
   3 13 13  8.11656E-04  1.22380E+04
   3 13 14  3.05182E-03  1.22539E+04
   3 13 15  1.87791E-04  1.24771E+04
   3 13 16  3.85753E-04  1.24804E+04
   3 13 17  1.97963E-05  1.24493E+04
   3 13 18  1.46066E-04  1.24828E+04
   3 13 19  1.67464E-04  1.24968E+04
   3 13 20  1.11289E-04  1.25405E+04
   3 13 21  1.63716E-04  1.25417E+04
   3 14 14  1.70077E-04  1.22698E+04
   3 14 15  8.97597E-05  1.24931E+04
   3 14 16  3.54301E-05  1.24964E+04
   3 14 17  1.06291E-05  1.24653E+04
   3 14 18  2.10232E-04  1.24987E+04
   3 14 19  2.30298E-05  1.25128E+04
   3 14 20  2.25575E-04  1.25564E+04
   3 14 21  1.77157E-05  1.25576E+04
   3 15 15  4.25520E-06  1.27163E+04
   3 15 16  2.97875E-05  1.27196E+04
   3 15 17  4.25520E-06  1.26885E+04
   3 15 18  9.11873E-06  1.27220E+04
   3 15 19  6.07914E-06  1.27360E+04
   3 15 20  1.39817E-05  1.27797E+04
   3 15 21  4.86329E-06  1.27809E+04
   3 16 16  2.04392E-06  1.27229E+04
   3 16 17  2.72518E-06  1.26918E+04
   3 16 18  6.81313E-06  1.27253E+04
   3 16 19  3.40642E-06  1.27393E+04
   3 16 20  3.20209E-05  1.27830E+04
   3 16 21  2.04392E-06  1.27841E+04
   3 17 17  6.48262E-07  1.26607E+04
   3 17 18  2.91721E-05  1.26942E+04
   3 17 19  3.24118E-06  1.27082E+04
   3 17 20  1.29655E-06  1.27519E+04
   3 17 21  6.48262E-07  1.27531E+04
   3 18 18  2.57860E-05  1.27276E+04
   3 18 19  6.31104E-05  1.27417E+04
   3 18 20  1.28924E-05  1.27853E+04
   3 18 21  1.28924E-05  1.27865E+04
   3 19 19  1.56716E-06  1.27557E+04
   3 19 20  1.64539E-05  1.27994E+04
   3 19 21  1.56716E-06  1.28005E+04
   3 20 20  3.74511E-06  1.28430E+04
   3 20 21  1.07010E-05  1.28442E+04
   3 21 21  5.35026E-07  1.28454E+04
   4  5  0  1.37481E-02  8.04589E+03
   4  6  0  1.27131E-04  8.30420E+03
   4  7  0  1.15071E-04  8.65920E+03
   4  8  0  2.37431E-02  9.09962E+03
   4  9  0  2.09331E-01  9.17518E+03
   4 10  0  2.75612E-03  1.05387E+04
   4 11  0  2.78182E-05  1.06436E+04
   4 12  0  2.77672E-05  1.07295E+04
   4 13  0  4.25822E-03  1.09035E+04
   4 14  0  3.83162E-02  1.09194E+04
   4 15  0  2.47901E-05  1.11427E+04
   4 16  0  1.38961E-04  1.11459E+04
   4 17  0  5.72073E-04  1.11149E+04
   4 18  0  5.85503E-06  1.11483E+04
   4 19  0  5.72263E-06  1.11623E+04
   4 20  0  2.71372E-04  1.12060E+04
   4 21  0  2.33251E-03  1.12072E+04
   4  5  5  8.43104E-04  4.92260E+03
   4  5  6  4.54736E-04  5.16810E+03
   4  5  7  2.25018E-02  5.52930E+03
   4  5  8  2.63504E-03  5.94510E+03
   4  5  9  4.07665E-03  6.02350E+03
   4  5 10  3.20273E-04  7.39298E+03
   4  5 11  8.04748E-05  7.49795E+03
   4  5 12  3.43215E-03  7.58375E+03
   4  5 13  2.61405E-04  7.75778E+03
   4  5 14  3.67243E-04  7.77372E+03
   4  5 15  1.87949E-04  7.99697E+03
   4  5 16  3.35394E-04  8.00024E+03
   4  5 17  5.77883E-05  7.96916E+03
   4  5 18  1.24221E-05  8.00262E+03
   4  5 19  4.94717E-04  8.01664E+03
   4  5 20  1.67426E-05  8.06031E+03
   4  5 21  1.72828E-05  8.06151E+03
   4  6  6  7.18331E-05  5.41360E+03
   4  6  7  3.77861E-02  5.77480E+03
   4  6  8  1.90442E-03  6.19060E+03
   4  6  9  1.66203E-02  6.26900E+03
   4  6 10  9.23552E-05  7.63848E+03
   4  6 11  3.02446E-05  7.74345E+03
   4  6 12  5.98214E-03  7.82925E+03
   4  6 13  3.49988E-04  8.00328E+03
   4  6 14  2.53306E-03  8.01922E+03
   4  6 15  1.91738E-04  8.24247E+03
   4  6 16  4.91492E-04  8.24574E+03
   4  6 17  1.72830E-05  8.21466E+03
   4  6 18  4.86090E-06  8.24812E+03
   4  6 19  8.68449E-04  8.26214E+03
   4  6 20  2.43045E-05  8.30581E+03
   4  6 21  1.31784E-04  8.30701E+03
   4  7  7  4.87317E-02  6.13600E+03
   4  7  8  5.09555E-02  6.55180E+03
   4  7  9  7.05657E-02  6.63020E+03
   4  7 10  5.56977E-03  7.99968E+03
   4  7 11  8.36555E-03  8.10465E+03
   4  7 12  1.86412E-02  8.19045E+03
   4  7 13  9.93276E-03  8.36448E+03
   4  7 14  1.35285E-02  8.38042E+03
   4  7 15  7.63640E-04  8.60367E+03
   4  7 16  9.54852E-04  8.60694E+03
   4  7 17  1.06178E-03  8.57586E+03
   4  7 18  1.35506E-03  8.60932E+03
   4  7 19  2.81386E-03  8.62334E+03
   4  7 20  6.95616E-04  8.66701E+03
   4  7 21  7.25848E-04  8.66821E+03
   4  8  8  7.16697E-03  6.96760E+03
   4  8  9  1.34612E-01  7.04600E+03
   4  8 10  6.23783E-04  8.41548E+03
   4  8 11  4.35845E-04  8.52045E+03
   4  8 12  7.37952E-03  8.60625E+03
   4  8 13  2.39465E-03  8.78028E+03
   4  8 14  1.88178E-02  8.79622E+03
   4  8 15  4.26658E-04  9.01947E+03
   4  8 16  1.45164E-03  9.02274E+03
   4  8 17  1.18277E-04  8.99166E+03
   4  8 18  7.07480E-05  9.02512E+03
   4  8 19  1.05374E-03  9.03914E+03
   4  8 20  1.64725E-04  9.08281E+03
   4  8 21  9.64556E-04  9.08401E+03
   4  9  9  8.99637E-02  7.12440E+03
   4  9 10  9.92183E-04  8.49388E+03
   4  9 11  3.35282E-03  8.59885E+03
   4  9 12  1.15339E-02  8.68465E+03
   4  9 13  2.27445E-02  8.85868E+03
   4  9 14  2.86896E-02  8.87462E+03
   4  9 15  4.52388E-03  9.09787E+03
   4  9 16  4.12958E-03  9.10114E+03
   4  9 17  1.89581E-04  9.07006E+03
   4  9 18  5.33619E-04  9.10352E+03
   4  9 19  1.69429E-03  9.11754E+03
   4  9 20  1.56035E-03  9.16121E+03
   4  9 21  1.50300E-03  9.16241E+03
   4 10 10  3.07844E-05  9.86336E+03
   4 10 11  1.72828E-05  9.96833E+03
   4 10 12  8.49573E-04  1.00541E+04
   4 10 13  6.75098E-05  1.02282E+04
   4 10 14  9.72168E-05  1.02441E+04
   4 10 15  2.59238E-05  1.04674E+04
   4 10 16  5.23877E-05  1.04706E+04
   4 10 17  1.13418E-05  1.04395E+04
   4 10 18  2.70042E-06  1.04730E+04
   4 10 19  1.22605E-04  1.04870E+04
   4 10 20  4.32075E-06  1.05307E+04
   4 10 21  4.86085E-06  1.05319E+04
   4 11 11  2.16028E-06  1.00733E+04
   4 11 12  1.31786E-03  1.01591E+04
   4 11 13  7.61556E-05  1.03331E+04
   4 11 14  5.40638E-04  1.03491E+04
   4 11 15  2.80862E-05  1.05723E+04
   4 11 16  6.80516E-05  1.05756E+04
   4 11 17  3.24057E-06  1.05445E+04
   4 11 18  5.40105E-07  1.05780E+04
   4 11 19  1.91197E-04  1.05920E+04
   4 11 20  5.40105E-06  1.06357E+04
   4 11 21  2.80862E-05  1.06369E+04
   4 12 12  1.70771E-03  1.02449E+04
   4 12 13  1.44203E-03  1.04189E+04
   4 12 14  2.17711E-03  1.04349E+04
   4 12 15  9.12781E-05  1.06581E+04
   4 12 16  1.20437E-04  1.06614E+04
   4 12 17  1.62026E-04  1.06303E+04
   4 12 18  2.13333E-04  1.06638E+04
   4 12 19  5.11468E-04  1.06778E+04
   4 12 20  1.00998E-04  1.07215E+04
   4 12 21  1.16651E-04  1.07227E+04
   4 13 13  1.92268E-04  1.05930E+04
   4 13 14  3.31511E-03  1.06089E+04
   4 13 15  4.80696E-05  1.08321E+04
   4 13 16  1.56092E-04  1.08354E+04
   4 13 17  1.29613E-05  1.08043E+04
   4 13 18  1.24222E-05  1.08378E+04
   4 13 19  2.05763E-04  1.08518E+04
   4 13 20  2.64631E-05  1.08955E+04
   4 13 21  1.70671E-04  1.08967E+04
   4 14 14  2.44735E-03  1.06248E+04
   4 14 15  5.28874E-04  1.08481E+04
   4 14 16  4.75406E-04  1.08514E+04
   4 14 17  2.01207E-05  1.08203E+04
   4 14 18  9.25558E-05  1.08537E+04
   4 14 19  3.39167E-04  1.08678E+04
   4 14 20  2.43164E-04  1.09114E+04
   4 14 21  2.56384E-04  1.09126E+04
   4 15 15  2.14621E-06  1.10713E+04
   4 15 16  6.58172E-05  1.10746E+04
   4 15 17  5.72333E-06  1.10435E+04
   4 15 18  5.72333E-06  1.10770E+04
   4 15 19  1.64545E-05  1.10910E+04
   4 15 20  4.29241E-06  1.11347E+04
   4 15 21  3.21937E-05  1.11359E+04
   4 16 16  1.87475E-05  1.10779E+04
   4 16 17  9.65740E-06  1.10468E+04
   4 16 18  1.07936E-05  1.10803E+04
   4 16 19  1.76111E-05  1.10943E+04
   4 16 20  1.02259E-05  1.11380E+04
   4 16 21  2.32920E-05  1.11391E+04
